frequency,raw,error,smoothed,error_smoothed,equalization,parametric_eq,fixed_band_eq,equalized_raw,equalized_smoothed,target
20.00,-3.52,-9.83,-3.52,-9.83,9.83,9.42,4.14,6.31,6.31,6.31
20.20,-3.49,-9.79,-3.49,-9.79,9.79,9.41,4.25,6.30,6.30,6.30
20.40,-3.46,-9.75,-3.46,-9.75,9.75,9.39,4.36,6.29,6.29,6.29
20.61,-3.43,-9.71,-3.43,-9.70,9.71,9.37,4.48,6.27,6.28,6.28
20.81,-3.40,-9.66,-3.40,-9.66,9.67,9.35,4.60,6.27,6.27,6.26
21.02,-3.37,-9.62,-3.37,-9.62,9.63,9.33,4.72,6.26,6.26,6.25
21.23,-3.34,-9.58,-3.34,-9.58,9.59,9.32,4.85,6.25,6.25,6.24
21.44,-3.31,-9.56,-3.31,-9.55,9.55,9.30,4.98,6.24,6.24,6.25
21.66,-3.28,-9.51,-3.28,-9.51,9.51,9.28,5.11,6.23,6.23,6.23
21.87,-3.25,-9.48,-3.25,-9.47,9.47,9.26,5.25,6.22,6.21,6.23
22.09,-3.22,-9.43,-3.22,-9.43,9.43,9.24,5.39,6.21,6.21,6.21
22.31,-3.19,-9.39,-3.19,-9.39,9.39,9.22,5.54,6.20,6.20,6.20
22.54,-3.15,-9.34,-3.15,-9.34,9.35,9.21,5.69,6.20,6.19,6.19
22.76,-3.12,-9.31,-3.12,-9.30,9.31,9.19,5.84,6.19,6.19,6.19
22.99,-3.09,-9.27,-3.09,-9.27,9.27,9.17,6.00,6.18,6.18,6.18
23.22,-3.06,-9.23,-3.06,-9.23,9.23,9.15,6.16,6.17,6.17,6.17
23.45,-3.03,-9.21,-3.03,-9.20,9.20,9.13,6.32,6.17,6.17,6.18
23.69,-3.00,-9.17,-3.00,-9.17,9.17,9.11,6.50,6.17,6.17,6.17
23.92,-2.97,-9.13,-2.97,-9.14,9.13,9.09,6.67,6.16,6.16,6.16
24.16,-2.94,-9.11,-2.94,-9.10,9.10,9.07,6.84,6.16,6.16,6.17
24.40,-2.91,-9.08,-2.91,-9.07,9.07,9.05,7.02,6.16,6.16,6.17
24.65,-2.88,-9.04,-2.88,-9.04,9.04,9.03,7.21,6.16,6.16,6.16
24.89,-2.85,-9.01,-2.85,-9.00,9.00,9.01,7.39,6.15,6.15,6.16
25.14,-2.82,-8.97,-2.82,-8.97,8.97,8.98,7.58,6.15,6.15,6.15
25.39,-2.79,-8.94,-2.79,-8.94,8.94,8.96,7.77,6.15,6.15,6.15
25.65,-2.76,-8.91,-2.76,-8.91,8.91,8.94,7.97,6.15,6.15,6.15
25.91,-2.73,-8.88,-2.73,-8.88,8.88,8.92,8.16,6.15,6.15,6.15
26.16,-2.70,-8.86,-2.70,-8.85,8.85,8.90,8.36,6.15,6.15,6.16
26.43,-2.67,-8.82,-2.67,-8.82,8.82,8.88,8.56,6.15,6.15,6.15
26.69,-2.64,-8.79,-2.64,-8.79,8.79,8.85,8.76,6.15,6.15,6.15
26.96,-2.61,-8.76,-2.61,-8.76,8.76,8.83,8.95,6.15,6.15,6.15
27.23,-2.58,-8.73,-2.58,-8.73,8.73,8.81,9.15,6.15,6.15,6.15
27.50,-2.55,-8.70,-2.55,-8.70,8.70,8.78,9.34,6.15,6.15,6.15
27.77,-2.52,-8.68,-2.52,-8.67,8.68,8.76,9.52,6.16,6.15,6.16
28.05,-2.49,-8.64,-2.49,-8.65,8.65,8.74,9.70,6.16,6.16,6.15
28.33,-2.47,-8.63,-2.47,-8.62,8.62,8.71,9.87,6.15,6.16,6.16
28.62,-2.44,-8.60,-2.44,-8.60,8.60,8.69,10.04,6.15,6.16,6.16
28.90,-2.41,-8.58,-2.41,-8.58,8.57,8.66,10.19,6.16,6.16,6.17
29.19,-2.38,-8.55,-2.38,-8.54,8.54,8.64,10.34,6.16,6.16,6.17
29.48,-2.35,-8.51,-2.35,-8.51,8.51,8.61,10.46,6.16,6.16,6.16
29.78,-2.32,-8.48,-2.32,-8.48,8.48,8.59,10.58,6.16,6.16,6.16
30.08,-2.29,-8.45,-2.29,-8.44,8.45,8.56,10.68,6.16,6.16,6.16
30.38,-2.27,-8.41,-2.27,-8.41,8.42,8.53,10.76,6.15,6.15,6.14
30.68,-2.25,-8.39,-2.25,-8.39,8.39,8.51,10.82,6.14,6.14,6.14
30.99,-2.22,-8.36,-2.22,-8.36,8.35,8.48,10.87,6.13,6.13,6.14
31.30,-2.19,-8.33,-2.19,-8.32,8.32,8.45,10.88,6.13,6.13,6.14
31.61,-2.16,-8.29,-2.16,-8.29,8.29,8.42,10.89,6.13,6.12,6.13
31.93,-2.14,-8.25,-2.14,-8.25,8.25,8.39,10.87,6.11,6.12,6.11
32.24,-2.11,-8.23,-2.11,-8.22,8.22,8.37,10.84,6.11,6.11,6.12
32.57,-2.08,-8.18,-2.08,-8.18,8.19,8.34,10.78,6.11,6.10,6.10
32.89,-2.06,-8.16,-2.06,-8.15,8.15,8.31,10.71,6.09,6.10,6.10
33.22,-2.03,-8.12,-2.03,-8.12,8.12,8.28,10.62,6.09,6.09,6.09
33.55,-2.01,-8.10,-2.01,-8.09,8.09,8.24,10.53,6.08,6.08,6.09
33.89,-1.99,-8.07,-1.99,-8.06,8.06,8.21,10.41,6.07,6.07,6.08
34.23,-1.97,-8.03,-1.97,-8.03,8.03,8.18,10.29,6.06,6.07,6.06
34.57,-1.95,-8.01,-1.95,-8.00,8.01,8.15,10.15,6.06,6.06,6.06
34.92,-1.92,-7.96,-1.93,-7.97,7.98,8.12,10.01,6.06,6.05,6.04
35.27,-1.91,-7.97,-1.91,-7.95,7.95,8.08,9.86,6.04,6.04,6.06
35.62,-1.90,-7.93,-1.90,-7.93,7.92,8.05,9.71,6.02,6.03,6.03
35.97,-1.88,-7.91,-1.88,-7.90,7.89,8.01,9.55,6.01,6.01,6.03
36.33,-1.86,-7.87,-1.86,-7.87,7.86,7.98,9.39,6.00,6.00,6.01
36.70,-1.84,-7.83,-1.84,-7.83,7.83,7.94,9.23,5.99,5.99,5.99
37.06,-1.83,-7.80,-1.83,-7.80,7.80,7.90,9.07,5.97,5.97,5.97
37.43,-1.81,-7.76,-1.81,-7.76,7.76,7.87,8.91,5.95,5.95,5.95
37.81,-1.79,-7.73,-1.79,-7.72,7.72,7.83,8.75,5.93,5.93,5.94
38.19,-1.77,-7.68,-1.77,-7.68,7.69,7.79,8.60,5.92,5.91,5.91
38.57,-1.76,-7.65,-1.76,-7.65,7.64,7.75,8.44,5.88,5.89,5.89
38.95,-1.74,-7.62,-1.74,-7.61,7.60,7.71,8.29,5.86,5.86,5.88
39.34,-1.72,-7.57,-1.72,-7.57,7.56,7.67,8.14,5.84,5.84,5.85
39.74,-1.70,-7.52,-1.70,-7.52,7.52,7.63,8.00,5.82,5.82,5.82
40.14,-1.67,-7.47,-1.67,-7.47,7.48,7.58,7.86,5.81,5.80,5.80
40.54,-1.65,-7.43,-1.65,-7.43,7.43,7.54,7.72,5.78,5.78,5.78
40.94,-1.63,-7.38,-1.63,-7.38,7.39,7.50,7.59,5.76,5.76,5.75
41.35,-1.62,-7.36,-1.62,-7.35,7.35,7.45,7.47,5.73,5.74,5.74
41.76,-1.60,-7.31,-1.60,-7.31,7.31,7.41,7.34,5.71,5.71,5.71
42.18,-1.58,-7.28,-1.58,-7.28,7.27,7.36,7.23,5.69,5.69,5.70
42.60,-1.57,-7.24,-1.57,-7.23,7.23,7.31,7.12,5.66,5.66,5.67
43.03,-1.55,-7.20,-1.55,-7.19,7.19,7.26,7.01,5.64,5.64,5.65
43.46,-1.53,-7.14,-1.53,-7.14,7.14,7.21,6.91,5.61,5.61,5.61
43.90,-1.51,-7.10,-1.51,-7.09,7.09,7.16,6.81,5.58,5.59,5.59
44.33,-1.48,-7.04,-1.48,-7.04,7.05,7.11,6.72,5.57,5.56,5.56
44.78,-1.46,-7.00,-1.46,-7.00,7.00,7.06,6.63,5.54,5.54,5.54
45.23,-1.44,-6.96,-1.44,-6.95,6.95,7.01,6.55,5.51,5.51,5.52
45.68,-1.42,-6.89,-1.42,-6.90,6.90,6.96,6.47,5.48,5.47,5.47
46.13,-1.41,-6.85,-1.41,-6.85,6.85,6.90,6.40,5.44,5.44,5.44
46.60,-1.40,-6.80,-1.40,-6.80,6.80,6.85,6.33,5.40,5.40,5.40
47.06,-1.39,-6.76,-1.39,-6.75,6.75,6.79,6.27,5.36,5.37,5.37
47.53,-1.38,-6.71,-1.38,-6.71,6.71,6.73,6.21,5.33,5.32,5.33
48.01,-1.38,-6.66,-1.38,-6.66,6.66,6.68,6.16,5.28,5.28,5.28
48.49,-1.38,-6.62,-1.38,-6.61,6.61,6.62,6.11,5.23,5.23,5.24
48.97,-1.37,-6.56,-1.37,-6.56,6.56,6.56,6.06,5.19,5.19,5.19
49.46,-1.36,-6.52,-1.36,-6.51,6.51,6.50,6.01,5.15,5.15,5.16
49.96,-1.35,-6.45,-1.35,-6.46,6.46,6.44,5.97,5.11,5.11,5.10
50.46,-1.34,-6.41,-1.34,-6.40,6.40,6.38,5.94,5.06,5.07,5.07
50.96,-1.32,-6.35,-1.32,-6.35,6.35,6.32,5.90,5.03,5.03,5.03
51.47,-1.31,-6.30,-1.31,-6.29,6.29,6.25,5.87,4.98,4.99,4.99
51.99,-1.29,-6.23,-1.29,-6.24,6.24,6.19,5.84,4.95,4.95,4.94
52.51,-1.28,-6.19,-1.28,-6.19,6.19,6.13,5.82,4.91,4.91,4.91
53.03,-1.27,-6.15,-1.27,-6.13,6.13,6.07,5.79,4.86,4.87,4.88
53.56,-1.25,-6.08,-1.25,-6.08,6.08,6.00,5.77,4.83,4.83,4.83
54.10,-1.24,-6.02,-1.24,-6.02,6.03,5.94,5.74,4.79,4.79,4.78
54.64,-1.23,-5.97,-1.23,-5.97,5.98,5.88,5.72,4.75,4.74,4.74
55.18,-1.23,-5.93,-1.23,-5.92,5.92,5.81,5.70,4.69,4.70,4.70
55.74,-1.22,-5.87,-1.22,-5.87,5.87,5.75,5.68,4.65,4.65,4.65
56.29,-1.20,-5.83,-1.20,-5.82,5.82,5.68,5.65,4.62,4.61,4.63
56.86,-1.18,-5.77,-1.18,-5.76,5.76,5.62,5.63,4.58,4.58,4.59
57.42,-1.16,-5.70,-1.16,-5.70,5.71,5.56,5.60,4.55,4.55,4.54
58.00,-1.14,-5.64,-1.14,-5.64,5.65,5.49,5.58,4.51,4.51,4.50
58.58,-1.12,-5.59,-1.12,-5.59,5.59,5.43,5.55,4.47,4.47,4.47
59.16,-1.10,-5.54,-1.10,-5.53,5.52,5.37,5.52,4.42,4.42,4.44
59.76,-1.08,-5.47,-1.08,-5.47,5.46,5.31,5.48,4.38,4.38,4.39
60.35,-1.06,-5.40,-1.06,-5.40,5.39,5.24,5.44,4.33,4.33,4.34
60.96,-1.04,-5.32,-1.04,-5.32,5.32,5.18,5.40,4.28,4.27,4.28
61.57,-1.02,-5.24,-1.02,-5.24,5.24,5.12,5.36,4.22,4.22,4.22
62.18,-1.01,-5.17,-1.01,-5.16,5.17,5.06,5.31,4.16,4.16,4.16
62.80,-0.99,-5.09,-0.99,-5.09,5.10,5.01,5.26,4.11,4.11,4.10
63.43,-0.98,-5.03,-0.98,-5.03,5.03,4.95,5.21,4.05,4.05,4.05
64.07,-0.97,-4.97,-0.97,-4.97,4.97,4.89,5.15,4.00,4.00,4.00
64.71,-0.96,-4.91,-0.96,-4.90,4.91,4.83,5.08,3.95,3.94,3.95
65.35,-0.96,-4.85,-0.96,-4.85,4.85,4.78,5.02,3.89,3.89,3.89
66.01,-0.95,-4.79,-0.95,-4.79,4.80,4.72,4.95,3.85,3.84,3.84
66.67,-0.96,-4.76,-0.96,-4.74,4.75,4.67,4.88,3.79,3.79,3.80
67.33,-0.96,-4.69,-0.96,-4.70,4.70,4.62,4.80,3.74,3.74,3.73
68.01,-0.97,-4.65,-0.97,-4.65,4.65,4.56,4.72,3.68,3.68,3.68
68.69,-0.98,-4.61,-0.98,-4.60,4.60,4.51,4.64,3.62,3.62,3.63
69.37,-0.98,-4.56,-0.98,-4.55,4.54,4.46,4.56,3.56,3.56,3.58
70.07,-0.98,-4.50,-0.98,-4.50,4.49,4.41,4.47,3.51,3.51,3.52
70.77,-0.98,-4.43,-0.98,-4.44,4.43,4.36,4.39,3.45,3.45,3.45
71.48,-0.98,-4.38,-0.98,-4.37,4.37,4.31,4.30,3.39,3.39,3.40
72.19,-0.98,-4.32,-0.98,-4.31,4.31,4.26,4.21,3.33,3.33,3.34
72.91,-0.98,-4.25,-0.98,-4.25,4.26,4.21,4.12,3.28,3.28,3.27
73.64,-0.98,-4.20,-0.98,-4.19,4.20,4.16,4.03,3.22,3.22,3.22
74.38,-0.98,-4.14,-0.98,-4.14,4.14,4.12,3.94,3.16,3.16,3.16
75.12,-0.98,-4.09,-0.98,-4.09,4.09,4.07,3.85,3.11,3.11,3.11
75.87,-0.98,-4.04,-0.98,-4.04,4.04,4.02,3.76,3.06,3.06,3.06
76.63,-0.99,-3.99,-0.99,-3.99,3.99,3.97,3.67,3.00,3.01,3.00
77.40,-0.99,-3.95,-0.99,-3.94,3.95,3.92,3.58,2.96,2.95,2.96
78.17,-1.00,-3.90,-1.00,-3.90,3.90,3.87,3.50,2.90,2.90,2.90
78.95,-1.00,-3.86,-1.00,-3.86,3.85,3.82,3.41,2.85,2.85,2.86
79.74,-1.00,-3.81,-1.00,-3.80,3.80,3.77,3.33,2.80,2.80,2.81
80.54,-0.99,-3.75,-0.99,-3.75,3.75,3.72,3.24,2.76,2.75,2.76
81.35,-0.98,-3.68,-0.98,-3.69,3.69,3.67,3.16,2.71,2.71,2.70
82.16,-0.97,-3.64,-0.97,-3.63,3.62,3.62,3.08,2.65,2.65,2.67
82.98,-0.95,-3.56,-0.95,-3.56,3.55,3.57,3.00,2.60,2.60,2.61
83.81,-0.93,-3.49,-0.93,-3.48,3.48,3.51,2.92,2.55,2.55,2.56
84.65,-0.90,-3.40,-0.90,-3.40,3.40,3.46,2.85,2.50,2.50,2.50
85.50,-0.88,-3.32,-0.88,-3.32,3.32,3.40,2.78,2.44,2.44,2.44
86.35,-0.85,-3.24,-0.85,-3.23,3.23,3.35,2.70,2.38,2.39,2.39
87.22,-0.81,-3.15,-0.82,-3.15,3.15,3.29,2.64,2.34,2.33,2.34
88.09,-0.79,-3.07,-0.78,-3.06,3.06,3.23,2.57,2.27,2.28,2.28
88.97,-0.75,-2.97,-0.75,-2.97,2.97,3.18,2.50,2.22,2.22,2.22
89.86,-0.72,-2.89,-0.72,-2.89,2.89,3.12,2.44,2.17,2.16,2.17
90.76,-0.70,-2.81,-0.70,-2.80,2.81,3.06,2.37,2.11,2.11,2.11
91.66,-0.68,-2.72,-0.68,-2.72,2.73,3.00,2.31,2.05,2.05,2.04
92.58,-0.66,-2.65,-0.66,-2.65,2.65,2.93,2.26,1.99,1.99,1.99
93.51,-0.64,-2.58,-0.64,-2.58,2.58,2.87,2.20,1.94,1.93,1.94
94.44,-0.64,-2.52,-0.64,-2.51,2.51,2.81,2.14,1.87,1.87,1.88
95.39,-0.63,-2.44,-0.63,-2.44,2.44,2.74,2.09,1.81,1.81,1.81
96.34,-0.64,-2.38,-0.64,-2.38,2.38,2.68,2.04,1.74,1.74,1.74
97.30,-0.64,-2.32,-0.64,-2.31,2.32,2.61,1.98,1.68,1.68,1.68
98.28,-0.65,-2.26,-0.65,-2.26,2.26,2.54,1.94,1.61,1.61,1.61
99.26,-0.65,-2.20,-0.65,-2.20,2.20,2.48,1.89,1.55,1.55,1.55
100.25,-0.66,-2.15,-0.66,-2.15,2.15,2.41,1.84,1.49,1.49,1.49
101.25,-0.66,-2.10,-0.66,-2.09,2.09,2.34,1.79,1.43,1.43,1.44
102.27,-0.66,-2.04,-0.66,-2.04,2.03,2.27,1.75,1.37,1.37,1.38
103.29,-0.66,-1.98,-0.66,-1.98,1.98,2.20,1.71,1.32,1.32,1.32
104.32,-0.66,-1.93,-0.66,-1.92,1.93,2.13,1.66,1.27,1.27,1.27
105.37,-0.66,-1.87,-0.66,-1.87,1.87,2.06,1.62,1.21,1.21,1.21
106.42,-0.66,-1.82,-0.66,-1.82,1.82,1.98,1.58,1.16,1.16,1.16
107.48,-0.66,-1.76,-0.66,-1.76,1.76,1.91,1.54,1.10,1.10,1.10
108.56,-0.66,-1.71,-0.66,-1.70,1.70,1.84,1.50,1.04,1.04,1.05
109.64,-0.66,-1.65,-0.66,-1.65,1.65,1.77,1.47,0.99,0.99,0.99
110.74,-0.66,-1.59,-0.66,-1.59,1.59,1.69,1.43,0.93,0.93,0.93
111.85,-0.66,-1.53,-0.66,-1.53,1.53,1.62,1.39,0.87,0.87,0.87
112.97,-0.66,-1.48,-0.66,-1.47,1.47,1.55,1.35,0.81,0.81,0.82
114.10,-0.66,-1.42,-0.66,-1.41,1.40,1.48,1.32,0.74,0.74,0.76
115.24,-0.66,-1.34,-0.66,-1.34,1.34,1.40,1.28,0.68,0.68,0.68
116.39,-0.66,-1.28,-0.66,-1.28,1.28,1.33,1.24,0.62,0.62,0.62
117.55,-0.66,-1.22,-0.66,-1.22,1.23,1.26,1.21,0.57,0.57,0.56
118.73,-0.66,-1.16,-0.66,-1.16,1.17,1.18,1.17,0.51,0.51,0.50
119.92,-0.66,-1.12,-0.66,-1.11,1.11,1.11,1.13,0.45,0.45,0.46
121.12,-0.66,-1.07,-0.66,-1.06,1.06,1.04,1.10,0.40,0.40,0.41
122.33,-0.66,-1.01,-0.66,-1.01,1.01,0.97,1.06,0.35,0.35,0.35
123.55,-0.66,-0.96,-0.66,-0.96,0.95,0.89,1.02,0.29,0.29,0.30
124.79,-0.66,-0.91,-0.66,-0.90,0.90,0.82,0.98,0.24,0.24,0.25
126.03,-0.66,-0.85,-0.66,-0.85,0.85,0.75,0.94,0.19,0.19,0.19
127.29,-0.66,-0.80,-0.66,-0.79,0.79,0.68,0.90,0.13,0.13,0.14
128.57,-0.66,-0.73,-0.66,-0.73,0.73,0.61,0.87,0.07,0.07,0.07
129.85,-0.66,-0.68,-0.66,-0.68,0.68,0.54,0.83,0.02,0.02,0.02
131.15,-0.66,-0.62,-0.66,-0.62,0.62,0.47,0.79,-0.04,-0.04,-0.04
132.46,-0.66,-0.57,-0.66,-0.56,0.57,0.41,0.74,-0.09,-0.09,-0.09
133.79,-0.66,-0.51,-0.66,-0.51,0.51,0.34,0.70,-0.15,-0.15,-0.15
135.12,-0.66,-0.46,-0.66,-0.46,0.46,0.27,0.66,-0.20,-0.20,-0.20
136.48,-0.66,-0.41,-0.66,-0.40,0.40,0.21,0.62,-0.26,-0.26,-0.25
137.84,-0.66,-0.36,-0.66,-0.36,0.35,0.14,0.57,-0.31,-0.31,-0.30
139.22,-0.66,-0.30,-0.66,-0.30,0.30,0.08,0.53,-0.36,-0.36,-0.36
140.61,-0.66,-0.26,-0.66,-0.25,0.25,0.02,0.49,-0.41,-0.41,-0.40
142.02,-0.66,-0.20,-0.66,-0.20,0.21,-0.04,0.44,-0.45,-0.45,-0.46
143.44,-0.66,-0.16,-0.66,-0.16,0.16,-0.10,0.40,-0.50,-0.50,-0.50
144.87,-0.66,-0.12,-0.66,-0.11,0.11,-0.17,0.35,-0.55,-0.55,-0.54
146.32,-0.66,-0.07,-0.66,-0.07,0.07,-0.22,0.31,-0.59,-0.59,-0.59
147.78,-0.66,-0.03,-0.66,-0.02,0.02,-0.28,0.26,-0.64,-0.64,-0.63
149.26,-0.66,0.02,-0.66,0.02,-0.02,-0.34,0.21,-0.68,-0.68,-0.68
150.75,-0.66,0.06,-0.66,0.06,-0.06,-0.39,0.16,-0.72,-0.72,-0.72
152.26,-0.66,0.10,-0.66,0.10,-0.10,-0.45,0.12,-0.76,-0.76,-0.76
153.78,-0.66,0.14,-0.66,0.14,-0.15,-0.50,0.07,-0.81,-0.81,-0.80
155.32,-0.66,0.18,-0.66,0.19,-0.19,-0.55,0.02,-0.85,-0.85,-0.84
156.88,-0.66,0.23,-0.66,0.23,-0.23,-0.61,-0.03,-0.89,-0.89,-0.89
158.44,-0.66,0.28,-0.66,0.28,-0.28,-0.65,-0.08,-0.94,-0.94,-0.94
160.03,-0.66,0.32,-0.66,0.32,-0.32,-0.70,-0.13,-0.98,-0.98,-0.98
161.63,-0.66,0.36,-0.66,0.37,-0.37,-0.75,-0.18,-1.03,-1.03,-1.02
163.24,-0.66,0.41,-0.66,0.41,-0.41,-0.80,-0.23,-1.07,-1.07,-1.07
164.88,-0.66,0.46,-0.66,0.46,-0.46,-0.84,-0.28,-1.12,-1.12,-1.12
166.53,-0.66,0.51,-0.66,0.51,-0.51,-0.89,-0.34,-1.17,-1.17,-1.17
168.19,-0.66,0.54,-0.66,0.55,-0.55,-0.93,-0.39,-1.21,-1.21,-1.20
169.87,-0.66,0.60,-0.66,0.60,-0.60,-0.97,-0.44,-1.26,-1.26,-1.26
171.57,-0.66,0.65,-0.66,0.65,-0.65,-1.01,-0.50,-1.31,-1.31,-1.31
173.29,-0.66,0.69,-0.66,0.70,-0.70,-1.05,-0.55,-1.36,-1.36,-1.35
175.02,-0.66,0.74,-0.66,0.74,-0.74,-1.09,-0.61,-1.40,-1.40,-1.40
176.77,-0.66,0.79,-0.66,0.79,-0.79,-1.13,-0.66,-1.45,-1.45,-1.45
178.54,-0.66,0.83,-0.66,0.84,-0.84,-1.16,-0.72,-1.50,-1.50,-1.49
180.32,-0.66,0.89,-0.66,0.88,-0.88,-1.20,-0.78,-1.54,-1.54,-1.55
182.13,-0.66,0.92,-0.66,0.93,-0.93,-1.23,-0.83,-1.59,-1.59,-1.58
183.95,-0.66,0.97,-0.66,0.98,-0.97,-1.27,-0.89,-1.63,-1.63,-1.63
185.79,-0.66,1.02,-0.66,1.02,-1.02,-1.30,-0.95,-1.68,-1.68,-1.68
187.65,-0.66,1.06,-0.66,1.06,-1.06,-1.33,-1.01,-1.72,-1.72,-1.72
189.52,-0.66,1.10,-0.66,1.10,-1.11,-1.36,-1.07,-1.77,-1.77,-1.76
191.42,-0.66,1.14,-0.66,1.14,-1.15,-1.39,-1.13,-1.81,-1.81,-1.80
193.33,-0.66,1.18,-0.66,1.19,-1.19,-1.42,-1.19,-1.85,-1.85,-1.84
195.27,-0.66,1.23,-0.66,1.23,-1.23,-1.44,-1.25,-1.89,-1.89,-1.89
197.22,-0.66,1.28,-0.66,1.28,-1.27,-1.47,-1.31,-1.93,-1.93,-1.94
199.19,-0.66,1.31,-0.66,1.32,-1.31,-1.49,-1.37,-1.97,-1.97,-1.97
201.18,-0.66,1.35,-0.66,1.35,-1.35,-1.52,-1.44,-2.01,-2.01,-2.01
203.19,-0.66,1.38,-0.66,1.38,-1.38,-1.54,-1.50,-2.04,-2.04,-2.04
205.23,-0.66,1.40,-0.66,1.41,-1.41,-1.56,-1.56,-2.07,-2.07,-2.06
207.28,-0.66,1.43,-0.66,1.44,-1.44,-1.58,-1.62,-2.10,-2.10,-2.09
209.35,-0.66,1.47,-0.66,1.47,-1.47,-1.60,-1.68,-2.13,-2.13,-2.13
211.44,-0.66,1.50,-0.66,1.50,-1.50,-1.62,-1.74,-2.16,-2.16,-2.16
213.56,-0.66,1.52,-0.66,1.53,-1.53,-1.64,-1.80,-2.19,-2.19,-2.18
215.69,-0.66,1.55,-0.66,1.55,-1.56,-1.66,-1.86,-2.22,-2.22,-2.21
217.85,-0.66,1.58,-0.66,1.58,-1.58,-1.67,-1.91,-2.24,-2.24,-2.24
220.03,-0.66,1.61,-0.66,1.61,-1.61,-1.69,-1.97,-2.27,-2.27,-2.27
222.23,-0.66,1.64,-0.66,1.64,-1.63,-1.70,-2.02,-2.29,-2.29,-2.30
224.45,-0.66,1.65,-0.66,1.66,-1.66,-1.72,-2.07,-2.32,-2.32,-2.31
226.70,-0.66,1.68,-0.66,1.68,-1.68,-1.73,-2.12,-2.34,-2.34,-2.34
228.96,-0.66,1.69,-0.66,1.70,-1.70,-1.75,-2.16,-2.36,-2.36,-2.35
231.25,-0.66,1.71,-0.66,1.71,-1.72,-1.76,-2.21,-2.38,-2.38,-2.37
233.57,-0.66,1.73,-0.66,1.73,-1.73,-1.77,-2.25,-2.39,-2.39,-2.39
235.90,-0.66,1.74,-0.66,1.75,-1.75,-1.78,-2.28,-2.41,-2.41,-2.40
238.26,-0.66,1.77,-0.66,1.76,-1.76,-1.79,-2.32,-2.42,-2.42,-2.43
240.64,-0.66,1.76,-0.66,1.77,-1.77,-1.80,-2.34,-2.43,-2.43,-2.42
243.05,-0.66,1.78,-0.66,1.78,-1.78,-1.81,-2.37,-2.44,-2.44,-2.44
245.48,-0.66,1.79,-0.66,1.79,-1.79,-1.82,-2.39,-2.45,-2.45,-2.45
247.93,-0.66,1.80,-0.66,1.80,-1.80,-1.82,-2.41,-2.46,-2.46,-2.46
250.41,-0.66,1.79,-0.66,1.80,-1.80,-1.83,-2.42,-2.46,-2.46,-2.45
252.92,-0.66,1.80,-0.66,1.80,-1.81,-1.84,-2.43,-2.47,-2.47,-2.46
255.45,-0.66,1.81,-0.66,1.81,-1.81,-1.84,-2.44,-2.47,-2.47,-2.47
258.00,-0.66,1.81,-0.66,1.81,-1.81,-1.85,-2.44,-2.47,-2.47,-2.47
260.58,-0.66,1.81,-0.66,1.81,-1.81,-1.85,-2.44,-2.47,-2.47,-2.47
263.19,-0.66,1.81,-0.66,1.82,-1.82,-1.86,-2.44,-2.48,-2.48,-2.47
265.82,-0.66,1.82,-0.66,1.82,-1.82,-1.86,-2.43,-2.48,-2.48,-2.48
268.48,-0.66,1.82,-0.66,1.82,-1.82,-1.87,-2.41,-2.48,-2.48,-2.48
271.16,-0.66,1.82,-0.66,1.82,-1.83,-1.87,-2.40,-2.49,-2.49,-2.48
273.87,-0.66,1.82,-0.66,1.82,-1.83,-1.87,-2.38,-2.49,-2.49,-2.48
276.61,-0.66,1.82,-0.66,1.83,-1.83,-1.87,-2.36,-2.49,-2.49,-2.48
279.38,-0.66,1.84,-0.66,1.84,-1.83,-1.87,-2.34,-2.49,-2.49,-2.50
282.17,-0.66,1.84,-0.66,1.83,-1.82,-1.88,-2.31,-2.48,-2.49,-2.50
284.99,-0.67,1.82,-0.67,1.83,-1.82,-1.88,-2.29,-2.49,-2.49,-2.49
287.84,-0.68,1.80,-0.68,1.81,-1.82,-1.88,-2.26,-2.50,-2.49,-2.48
290.72,-0.68,1.81,-0.68,1.81,-1.82,-1.88,-2.23,-2.50,-2.49,-2.49
293.63,-0.67,1.81,-0.67,1.81,-1.82,-1.88,-2.20,-2.49,-2.49,-2.48
296.57,-0.66,1.81,-0.66,1.82,-1.82,-1.88,-2.17,-2.48,-2.48,-2.47
299.53,-0.64,1.83,-0.64,1.83,-1.83,-1.88,-2.14,-2.47,-2.47,-2.47
302.53,-0.62,1.83,-0.62,1.84,-1.85,-1.87,-2.11,-2.47,-2.47,-2.45
305.55,-0.59,1.87,-0.59,1.87,-1.87,-1.87,-2.07,-2.46,-2.46,-2.46
308.61,-0.56,1.89,-0.56,1.89,-1.89,-1.87,-2.04,-2.45,-2.45,-2.45
311.69,-0.52,1.92,-0.53,1.92,-1.92,-1.87,-2.01,-2.44,-2.44,-2.44
314.81,-0.50,1.94,-0.49,1.94,-1.94,-1.87,-1.98,-2.44,-2.44,-2.44
317.96,-0.46,1.97,-0.46,1.97,-1.97,-1.86,-1.95,-2.43,-2.43,-2.43
321.14,-0.43,1.99,-0.43,2.00,-2.00,-1.86,-1.92,-2.43,-2.43,-2.42
324.35,-0.40,2.02,-0.40,2.02,-2.02,-1.86,-1.89,-2.42,-2.41,-2.42
327.59,-0.36,2.03,-0.37,2.04,-2.04,-1.85,-1.87,-2.40,-2.41,-2.39
330.87,-0.35,2.05,-0.34,2.05,-2.05,-1.85,-1.84,-2.40,-2.40,-2.40
334.18,-0.33,2.06,-0.33,2.07,-2.06,-1.84,-1.81,-2.39,-2.39,-2.39
337.52,-0.31,2.08,-0.32,2.07,-2.06,-1.84,-1.79,-2.37,-2.38,-2.39
340.90,-0.31,2.06,-0.31,2.07,-2.06,-1.83,-1.77,-2.37,-2.37,-2.37
344.30,-0.31,2.05,-0.31,2.06,-2.05,-1.83,-1.75,-2.36,-2.37,-2.36
347.75,-0.32,2.04,-0.32,2.04,-2.05,-1.82,-1.73,-2.37,-2.37,-2.36
351.23,-0.33,2.03,-0.33,2.03,-2.03,-1.82,-1.71,-2.36,-2.36,-2.36
354.74,-0.33,2.00,-0.33,2.02,-2.02,-1.81,-1.69,-2.35,-2.35,-2.33
358.28,-0.33,2.01,-0.33,2.01,-2.01,-1.81,-1.67,-2.34,-2.34,-2.34
361.87,-0.33,2.00,-0.33,2.00,-2.00,-1.80,-1.66,-2.33,-2.33,-2.33
365.49,-0.33,1.99,-0.33,1.99,-1.99,-1.79,-1.64,-2.32,-2.32,-2.32
369.14,-0.33,1.97,-0.33,1.98,-1.98,-1.79,-1.63,-2.31,-2.31,-2.30
372.83,-0.33,1.97,-0.33,1.97,-1.97,-1.78,-1.62,-2.30,-2.30,-2.30
376.56,-0.33,1.97,-0.33,1.97,-1.97,-1.77,-1.61,-2.30,-2.30,-2.30
380.33,-0.33,1.96,-0.33,1.96,-1.96,-1.77,-1.60,-2.29,-2.29,-2.29
384.13,-0.33,1.94,-0.33,1.95,-1.95,-1.76,-1.60,-2.28,-2.28,-2.27
387.97,-0.33,1.94,-0.33,1.94,-1.94,-1.75,-1.59,-2.27,-2.27,-2.27
391.85,-0.33,1.93,-0.33,1.93,-1.93,-1.75,-1.59,-2.26,-2.26,-2.26
395.77,-0.33,1.92,-0.33,1.92,-1.92,-1.74,-1.58,-2.25,-2.25,-2.25
399.73,-0.33,1.91,-0.33,1.91,-1.91,-1.73,-1.58,-2.24,-2.24,-2.24
403.72,-0.33,1.88,-0.33,1.90,-1.90,-1.72,-1.58,-2.23,-2.23,-2.21
407.76,-0.33,1.89,-0.33,1.89,-1.89,-1.71,-1.58,-2.22,-2.22,-2.22
411.84,-0.33,1.88,-0.33,1.88,-1.88,-1.71,-1.58,-2.21,-2.21,-2.21
415.96,-0.33,1.86,-0.33,1.87,-1.87,-1.70,-1.58,-2.20,-2.20,-2.19
420.12,-0.33,1.86,-0.33,1.86,-1.86,-1.69,-1.58,-2.19,-2.19,-2.19
424.32,-0.33,1.85,-0.33,1.85,-1.85,-1.68,-1.58,-2.18,-2.18,-2.18
428.56,-0.33,1.83,-0.33,1.84,-1.84,-1.67,-1.58,-2.17,-2.17,-2.16
432.85,-0.33,1.82,-0.33,1.83,-1.83,-1.66,-1.59,-2.16,-2.16,-2.15
437.18,-0.33,1.83,-0.33,1.83,-1.83,-1.65,-1.59,-2.16,-2.16,-2.16
441.55,-0.33,1.82,-0.33,1.82,-1.82,-1.65,-1.59,-2.15,-2.15,-2.15
445.96,-0.33,1.81,-0.33,1.81,-1.81,-1.64,-1.60,-2.14,-2.14,-2.14
450.42,-0.33,1.80,-0.33,1.80,-1.80,-1.63,-1.60,-2.13,-2.13,-2.13
454.93,-0.33,1.79,-0.33,1.79,-1.79,-1.62,-1.60,-2.12,-2.12,-2.12
459.48,-0.33,1.78,-0.33,1.78,-1.78,-1.61,-1.61,-2.11,-2.11,-2.11
464.07,-0.33,1.76,-0.33,1.77,-1.77,-1.60,-1.61,-2.10,-2.10,-2.09
468.71,-0.33,1.75,-0.33,1.76,-1.76,-1.59,-1.61,-2.09,-2.09,-2.08
473.40,-0.33,1.75,-0.33,1.75,-1.75,-1.58,-1.61,-2.08,-2.08,-2.08
