frequency,raw,error,smoothed,error_smoothed,equalization,parametric_eq,fixed_band_eq,equalized_raw,equalized_smoothed,target
20.00,2.08,-2.60,2.08,-2.64,2.64,2.85,0.49,4.72,4.71,4.68
20.20,2.14,-2.59,2.14,-2.60,2.60,2.83,0.50,4.75,4.75,4.73
20.40,2.20,-2.58,2.21,-2.57,2.57,2.80,0.51,4.77,4.78,4.78
20.61,2.26,-2.55,2.27,-2.54,2.54,2.78,0.53,4.80,4.82,4.81
20.81,2.32,-2.54,2.34,-2.51,2.51,2.75,0.54,4.83,4.85,4.86
21.02,2.39,-2.51,2.40,-2.47,2.47,2.72,0.55,4.87,4.87,4.90
21.23,2.45,-2.47,2.46,-2.44,2.44,2.68,0.56,4.89,4.90,4.92
21.44,2.52,-2.42,2.51,-2.41,2.41,2.65,0.57,4.93,4.92,4.94
21.66,2.59,-2.37,2.57,-2.37,2.37,2.61,0.59,4.96,4.94,4.96
21.87,2.65,-2.32,2.62,-2.33,2.33,2.57,0.60,4.99,4.96,4.97
22.09,2.71,-2.28,2.67,-2.30,2.30,2.53,0.61,5.01,4.97,4.99
22.31,2.74,-2.25,2.72,-2.26,2.26,2.49,0.63,5.00,4.99,5.00
22.54,2.78,-2.21,2.77,-2.22,2.22,2.45,0.64,5.00,4.99,5.00
22.76,2.82,-2.17,2.81,-2.18,2.18,2.40,0.65,5.00,5.00,4.99
22.99,2.86,-2.12,2.86,-2.14,2.14,2.36,0.67,5.00,5.00,4.98
23.22,2.89,-2.09,2.90,-2.10,2.10,2.32,0.68,4.99,5.00,4.98
23.45,2.92,-2.06,2.94,-2.06,2.06,2.27,0.70,4.98,5.00,4.98
23.69,2.95,-2.04,2.98,-2.02,2.02,2.23,0.71,4.97,5.00,4.99
23.92,2.98,-2.01,3.02,-1.98,1.98,2.18,0.73,4.96,5.00,4.99
24.16,3.03,-1.97,3.06,-1.94,1.94,2.14,0.75,4.97,5.00,5.00
24.40,3.08,-1.93,3.10,-1.90,1.90,2.10,0.76,4.98,5.00,5.01
24.65,3.14,-1.86,3.14,-1.86,1.86,2.05,0.78,5.00,5.00,5.00
24.89,3.20,-1.80,3.18,-1.82,1.82,2.01,0.79,5.02,5.00,5.00
25.14,3.24,-1.75,3.22,-1.78,1.78,1.97,0.81,5.02,5.00,5.00
25.39,3.28,-1.72,3.27,-1.73,1.73,1.92,0.83,5.02,5.00,5.01
25.65,3.32,-1.68,3.31,-1.69,1.69,1.88,0.85,5.01,5.00,5.00
25.91,3.37,-1.62,3.36,-1.64,1.64,1.84,0.86,5.01,5.00,4.99
26.16,3.40,-1.59,3.40,-1.59,1.59,1.80,0.88,5.00,5.00,4.99
26.43,3.43,-1.56,3.44,-1.55,1.55,1.76,0.90,4.98,5.00,4.99
26.69,3.46,-1.53,3.48,-1.51,1.51,1.72,0.91,4.98,4.99,4.99
26.96,3.49,-1.51,3.51,-1.48,1.48,1.68,0.93,4.97,4.99,5.00
27.23,3.54,-1.46,3.55,-1.44,1.44,1.65,0.95,4.98,4.99,5.00
27.50,3.59,-1.40,3.58,-1.41,1.41,1.61,0.97,5.00,4.99,5.00
27.77,3.65,-1.33,3.61,-1.37,1.37,1.58,0.98,5.02,4.99,4.98
28.05,3.69,-1.29,3.65,-1.34,1.34,1.54,1.00,5.03,4.98,4.98
28.33,3.69,-1.28,3.68,-1.30,1.30,1.51,1.01,4.99,4.98,4.97
28.62,3.69,-1.28,3.71,-1.27,1.27,1.47,1.03,4.96,4.98,4.97
28.90,3.69,-1.29,3.74,-1.24,1.24,1.44,1.05,4.93,4.98,4.98
29.19,3.73,-1.23,3.77,-1.21,1.21,1.41,1.06,4.94,4.98,4.97
29.48,3.79,-1.19,3.80,-1.17,1.17,1.38,1.08,4.96,4.97,4.98
29.78,3.85,-1.12,3.83,-1.14,1.14,1.35,1.09,4.99,4.97,4.97
30.08,3.89,-1.09,3.87,-1.10,1.10,1.33,1.10,4.99,4.97,4.98
30.38,3.90,-1.07,3.90,-1.07,1.07,1.30,1.12,4.97,4.97,4.97
30.68,3.91,-1.05,3.93,-1.04,1.04,1.27,1.13,4.95,4.97,4.97
30.99,3.92,-1.04,3.96,-1.01,1.01,1.25,1.14,4.93,4.96,4.96
31.30,3.97,-0.99,3.99,-0.97,0.97,1.22,1.15,4.94,4.96,4.96
31.61,4.03,-0.93,4.02,-0.93,0.93,1.20,1.17,4.97,4.96,4.96
31.93,4.09,-0.87,4.06,-0.90,0.90,1.18,1.18,4.99,4.95,4.96
32.24,4.10,-0.84,4.08,-0.87,0.87,1.15,1.19,4.97,4.95,4.94
32.57,4.11,-0.84,4.11,-0.84,0.84,1.13,1.20,4.95,4.94,4.95
32.89,4.12,-0.83,4.13,-0.81,0.81,1.11,1.21,4.93,4.94,4.95
33.22,4.14,-0.79,4.14,-0.79,0.79,1.09,1.22,4.93,4.93,4.93
33.55,4.16,-0.77,4.16,-0.77,0.77,1.07,1.23,4.93,4.93,4.93
33.89,4.19,-0.73,4.17,-0.75,0.75,1.06,1.24,4.94,4.92,4.92
34.23,4.20,-0.72,4.18,-0.74,0.74,1.04,1.25,4.94,4.92,4.92
34.57,4.20,-0.71,4.19,-0.72,0.72,1.02,1.26,4.92,4.91,4.91
34.92,4.20,-0.71,4.20,-0.71,0.71,1.01,1.27,4.91,4.91,4.91
35.27,4.20,-0.70,4.20,-0.70,0.70,0.99,1.28,4.91,4.90,4.90
35.62,4.20,-0.70,4.21,-0.69,0.69,0.98,1.29,4.90,4.90,4.90
35.97,4.20,-0.69,4.22,-0.68,0.68,0.96,1.30,4.88,4.90,4.90
36.33,4.20,-0.70,4.22,-0.67,0.67,0.95,1.32,4.87,4.90,4.90
36.70,4.20,-0.69,4.23,-0.66,0.66,0.94,1.33,4.86,4.89,4.89
37.06,4.21,-0.67,4.24,-0.65,0.65,0.93,1.34,4.86,4.89,4.88
37.43,4.24,-0.66,4.25,-0.64,0.64,0.92,1.36,4.88,4.89,4.90
37.81,4.26,-0.63,4.26,-0.63,0.63,0.91,1.37,4.89,4.89,4.89
38.19,4.28,-0.61,4.27,-0.62,0.62,0.90,1.39,4.90,4.89,4.89
38.57,4.29,-0.60,4.28,-0.61,0.61,0.89,1.41,4.90,4.89,4.89
38.95,4.30,-0.59,4.28,-0.61,0.61,0.88,1.42,4.91,4.89,4.90
39.34,4.30,-0.59,4.29,-0.60,0.60,0.87,1.44,4.90,4.89,4.89
39.74,4.30,-0.58,4.29,-0.60,0.60,0.87,1.46,4.90,4.89,4.88
40.14,4.30,-0.59,4.29,-0.59,0.59,0.86,1.49,4.90,4.89,4.89
40.54,4.30,-0.58,4.29,-0.59,0.59,0.86,1.51,4.89,4.88,4.88
40.94,4.30,-0.57,4.28,-0.60,0.60,0.85,1.53,4.90,4.88,4.88
41.35,4.27,-0.60,4.27,-0.60,0.60,0.85,1.56,4.87,4.87,4.87
41.76,4.24,-0.62,4.26,-0.60,0.60,0.85,1.59,4.84,4.86,4.86
42.18,4.22,-0.64,4.25,-0.60,0.60,0.84,1.61,4.82,4.85,4.86
42.60,4.21,-0.63,4.24,-0.60,0.60,0.84,1.64,4.81,4.84,4.85
43.03,4.20,-0.64,4.22,-0.61,0.61,0.84,1.67,4.81,4.83,4.84
43.46,4.20,-0.63,4.20,-0.62,0.62,0.84,1.71,4.82,4.81,4.83
43.90,4.20,-0.60,4.18,-0.63,0.63,0.84,1.74,4.83,4.80,4.80
44.33,4.16,-0.62,4.15,-0.63,0.63,0.85,1.78,4.80,4.79,4.78
44.78,4.11,-0.65,4.13,-0.65,0.65,0.85,1.81,4.76,4.77,4.76
45.23,4.09,-0.66,4.10,-0.66,0.66,0.85,1.85,4.75,4.76,4.75
45.68,4.11,-0.62,4.07,-0.67,0.67,0.86,1.89,4.78,4.74,4.73
46.13,4.09,-0.62,4.04,-0.68,0.68,0.86,1.93,4.77,4.73,4.71
46.60,3.97,-0.74,4.00,-0.71,0.71,0.87,1.97,4.68,4.71,4.71
47.06,3.87,-0.82,3.95,-0.74,0.74,0.87,2.02,4.61,4.69,4.69
47.53,3.89,-0.79,3.91,-0.77,0.77,0.88,2.06,4.66,4.67,4.68
48.01,3.90,-0.77,3.85,-0.80,0.80,0.89,2.11,4.71,4.66,4.68
48.49,3.82,-0.83,3.79,-0.85,0.85,0.90,2.16,4.67,4.64,4.65
48.97,3.73,-0.90,3.73,-0.90,0.90,0.91,2.20,4.63,4.63,4.63
49.46,3.67,-0.94,3.66,-0.95,0.95,0.93,2.25,4.62,4.61,4.61
49.96,3.61,-0.97,3.59,-1.01,1.01,0.94,2.30,4.62,4.60,4.58
50.46,3.49,-1.09,3.50,-1.08,1.08,0.95,2.35,4.57,4.58,4.58
50.96,3.36,-1.20,3.42,-1.15,1.15,0.97,2.40,4.51,4.56,4.56
51.47,3.33,-1.21,3.32,-1.23,1.23,0.99,2.45,4.56,4.55,4.54
51.99,3.31,-1.21,3.23,-1.31,1.31,1.01,2.50,4.62,4.53,4.52
52.51,3.17,-1.34,3.12,-1.39,1.39,1.03,2.55,4.57,4.52,4.52
53.03,3.02,-1.49,3.02,-1.48,1.48,1.05,2.60,4.50,4.50,4.51
53.56,2.91,-1.58,2.91,-1.57,1.57,1.07,2.65,4.48,4.49,4.49
54.10,2.80,-1.67,2.82,-1.65,1.65,1.10,2.70,4.46,4.47,4.47
54.64,2.70,-1.75,2.72,-1.73,1.73,1.13,2.75,4.44,4.46,4.45
55.18,2.60,-1.84,2.63,-1.81,1.81,1.16,2.80,4.42,4.44,4.44
55.74,2.50,-1.92,2.54,-1.89,1.89,1.19,2.84,4.39,4.43,4.42
56.29,2.40,-2.01,2.46,-1.95,1.95,1.22,2.88,4.35,4.41,4.41
56.86,2.31,-2.08,2.38,-2.01,2.01,1.26,2.92,4.33,4.39,4.39
57.42,2.28,-2.08,2.30,-2.07,2.07,1.30,2.96,4.36,4.37,4.36
58.00,2.27,-2.08,2.22,-2.13,2.13,1.34,2.99,4.40,4.35,4.35
58.58,2.18,-2.15,2.16,-2.16,2.16,1.39,3.02,4.35,4.32,4.33
59.16,2.11,-2.20,2.10,-2.20,2.20,1.44,3.05,4.31,4.29,4.31
59.76,2.06,-2.22,2.03,-2.23,2.23,1.49,3.07,4.29,4.26,4.28
60.35,1.98,-2.26,1.97,-2.26,2.26,1.54,3.09,4.24,4.23,4.24
60.96,1.89,-2.31,1.90,-2.29,2.29,1.60,3.11,4.18,4.19,4.20
61.57,1.85,-2.30,1.84,-2.31,2.31,1.67,3.12,4.16,4.15,4.15
62.18,1.78,-2.32,1.77,-2.34,2.34,1.74,3.13,4.12,4.11,4.11
62.80,1.66,-2.39,1.70,-2.36,2.36,1.81,3.13,4.02,4.06,4.06
63.43,1.58,-2.42,1.62,-2.39,2.39,1.89,3.13,3.97,4.01,4.01
64.07,1.51,-2.44,1.53,-2.43,2.43,1.97,3.13,3.94,3.96,3.96
64.71,1.45,-2.45,1.44,-2.47,2.47,2.06,3.12,3.92,3.91,3.90
65.35,1.35,-2.51,1.34,-2.52,2.52,2.15,3.10,3.87,3.86,3.86
66.01,1.22,-2.59,1.24,-2.57,2.57,2.25,3.09,3.79,3.81,3.81
66.67,1.13,-2.62,1.11,-2.64,2.64,2.36,3.06,3.77,3.75,3.75
67.33,1.02,-2.68,0.98,-2.72,2.72,2.48,3.04,3.74,3.70,3.70
68.01,0.90,-2.75,0.84,-2.81,2.81,2.60,3.01,3.71,3.65,3.65
68.69,0.74,-2.85,0.68,-2.91,2.91,2.73,2.98,3.65,3.59,3.59
69.37,0.56,-2.97,0.51,-3.02,3.02,2.87,2.95,3.58,3.53,3.53
70.07,0.35,-3.12,0.34,-3.14,3.14,3.02,2.91,3.49,3.47,3.48
70.77,0.14,-3.28,0.15,-3.26,3.26,3.17,2.88,3.40,3.41,3.43
71.48,-0.04,-3.40,-0.04,-3.40,3.40,3.34,2.84,3.36,3.35,3.36
72.19,-0.23,-3.52,-0.24,-3.53,3.53,3.51,2.80,3.30,3.29,3.29
72.91,-0.51,-3.74,-0.44,-3.67,3.67,3.69,2.75,3.16,3.23,3.23
73.64,-0.69,-3.85,-0.64,-3.81,3.81,3.87,2.71,3.12,3.16,3.16
74.38,-0.88,-3.98,-0.85,-3.95,3.95,4.07,2.67,3.07,3.10,3.10
75.12,-1.07,-4.10,-1.05,-4.09,4.09,4.26,2.62,3.02,3.04,3.03
75.87,-1.26,-4.23,-1.26,-4.23,4.23,4.46,2.58,2.97,2.98,2.97
76.63,-1.45,-4.36,-1.45,-4.37,4.37,4.66,2.54,2.92,2.91,2.91
77.40,-1.64,-4.49,-1.65,-4.50,4.50,4.85,2.50,2.86,2.85,2.85
78.17,-1.83,-4.61,-1.84,-4.64,4.64,5.03,2.45,2.81,2.79,2.78
78.95,-2.00,-4.74,-2.04,-4.78,4.78,5.21,2.41,2.78,2.73,2.74
79.74,-2.17,-4.85,-2.23,-4.91,4.91,5.36,2.37,2.74,2.68,2.68
80.54,-2.39,-5.01,-2.42,-5.04,5.04,5.49,2.33,2.65,2.62,2.62
81.35,-2.60,-5.16,-2.60,-5.16,5.16,5.60,2.29,2.56,2.56,2.56
82.16,-2.77,-5.27,-2.78,-5.28,5.28,5.67,2.25,2.51,2.51,2.50
82.98,-2.94,-5.40,-2.94,-5.39,5.39,5.71,2.22,2.45,2.45,2.46
83.81,-3.04,-5.43,-3.09,-5.49,5.49,5.72,2.18,2.45,2.39,2.39
84.65,-3.23,-5.56,-3.22,-5.56,5.56,5.68,2.15,2.33,2.34,2.34
85.50,-3.42,-5.71,-3.34,-5.62,5.62,5.61,2.12,2.20,2.28,2.29
86.35,-3.54,-5.77,-3.44,-5.66,5.66,5.51,2.09,2.12,2.22,2.23
87.22,-3.55,-5.72,-3.51,-5.68,5.68,5.38,2.06,2.13,2.16,2.17
88.09,-3.56,-5.67,-3.57,-5.67,5.67,5.22,2.03,2.11,2.10,2.11
88.97,-3.65,-5.70,-3.60,-5.65,5.65,5.04,2.01,2.00,2.05,2.05
89.86,-3.62,-5.60,-3.61,-5.59,5.59,4.85,1.98,1.97,1.99,1.99
90.76,-3.57,-5.49,-3.58,-5.50,5.50,4.65,1.96,1.94,1.93,1.92
91.66,-3.50,-5.37,-3.53,-5.39,5.39,4.44,1.94,1.90,1.87,1.87
92.58,-3.42,-5.21,-3.45,-5.25,5.25,4.23,1.92,1.84,1.81,1.80
93.51,-3.36,-5.10,-3.34,-5.09,5.09,4.01,1.90,1.73,1.75,1.74
94.44,-3.26,-4.94,-3.21,-4.90,4.90,3.80,1.88,1.64,1.69,1.69
95.39,-3.09,-4.72,-3.06,-4.68,4.68,3.60,1.87,1.60,1.63,1.63
96.34,-2.95,-4.51,-2.89,-4.46,4.46,3.39,1.86,1.51,1.57,1.57
97.30,-2.80,-4.31,-2.70,-4.22,4.22,3.20,1.84,1.42,1.51,1.51
98.28,-2.52,-3.97,-2.50,-3.95,3.95,3.01,1.83,1.43,1.45,1.45
99.26,-2.18,-3.57,-2.27,-3.67,3.67,2.82,1.82,1.49,1.40,1.40
100.25,-2.01,-3.35,-2.04,-3.37,3.37,2.64,1.81,1.36,1.34,1.34
101.25,-1.81,-3.09,-1.79,-3.07,3.07,2.47,1.81,1.26,1.28,1.28
102.27,-1.50,-2.72,-1.53,-2.75,2.75,2.30,1.80,1.25,1.22,1.22
103.29,-1.31,-2.47,-1.28,-2.44,2.44,2.13,1.79,1.13,1.16,1.16
104.32,-1.09,-2.20,-1.02,-2.12,2.12,1.96,1.79,1.04,1.10,1.11
105.37,-0.77,-1.82,-0.77,-1.81,1.81,1.80,1.78,1.04,1.04,1.05
106.42,-0.49,-1.48,-0.52,-1.51,1.51,1.63,1.78,1.02,0.98,0.99
107.48,-0.28,-1.20,-0.28,-1.20,1.20,1.45,1.77,0.93,0.92,0.93
108.56,0.00,-0.86,-0.05,-0.91,0.91,1.27,1.77,0.91,0.86,0.86
109.64,0.22,-0.58,0.16,-0.64,0.64,1.07,1.77,0.86,0.80,0.80
110.74,0.38,-0.35,0.35,-0.38,0.38,0.86,1.76,0.76,0.74,0.73
111.85,0.50,-0.18,0.54,-0.14,0.14,0.63,1.76,0.64,0.67,0.69
112.97,0.64,0.03,0.69,0.08,-0.08,0.37,1.75,0.56,0.61,0.61
114.10,0.78,0.23,0.82,0.27,-0.27,0.10,1.75,0.52,0.56,0.55
115.24,0.97,0.47,0.93,0.43,-0.43,-0.18,1.74,0.54,0.50,0.50
116.39,1.04,0.61,1.01,0.56,-0.56,-0.45,1.74,0.48,0.44,0.43
117.55,1.13,0.75,1.06,0.67,-0.67,-0.67,1.73,0.47,0.39,0.38
118.73,1.18,0.85,1.09,0.75,-0.75,-0.81,1.72,0.43,0.34,0.33
119.92,1.13,0.84,1.10,0.80,-0.80,-0.85,1.71,0.33,0.29,0.30
121.12,1.06,0.82,1.07,0.82,-0.82,-0.78,1.70,0.24,0.25,0.24
122.33,1.00,0.80,1.02,0.81,-0.81,-0.64,1.69,0.19,0.20,0.20
123.55,0.90,0.74,0.94,0.78,-0.78,-0.47,1.67,0.13,0.16,0.17
124.79,0.79,0.67,0.83,0.71,-0.71,-0.30,1.66,0.08,0.12,0.12
126.03,0.71,0.63,0.69,0.61,-0.61,-0.15,1.64,0.10,0.08,0.08
127.29,0.59,0.54,0.52,0.48,-0.48,-0.02,1.63,0.11,0.04,0.05
128.57,0.42,0.42,0.33,0.33,-0.33,0.09,1.61,0.09,0.00,0.00
129.85,0.26,0.30,0.13,0.17,-0.17,0.17,1.59,0.09,-0.04,-0.04
131.15,0.04,0.12,-0.08,-0.01,0.01,0.24,1.56,0.05,-0.07,-0.08
132.46,-0.32,-0.21,-0.29,-0.18,0.18,0.29,1.54,-0.14,-0.11,-0.11
133.79,-0.54,-0.39,-0.49,-0.34,0.34,0.33,1.51,-0.19,-0.15,-0.15
135.12,-0.75,-0.55,-0.69,-0.51,0.51,0.36,1.49,-0.24,-0.19,-0.20
136.48,-0.99,-0.77,-0.87,-0.65,0.65,0.38,1.46,-0.33,-0.22,-0.22
137.84,-1.14,-0.87,-1.04,-0.78,0.78,0.40,1.43,-0.35,-0.26,-0.26
139.22,-1.41,-1.10,-1.19,-0.90,0.90,0.41,1.40,-0.51,-0.29,-0.31
140.61,-1.60,-1.25,-1.33,-0.99,0.99,0.42,1.37,-0.60,-0.33,-0.35
142.02,-1.58,-1.21,-1.46,-1.08,1.08,0.42,1.34,-0.50,-0.37,-0.37
143.44,-1.65,-1.24,-1.58,-1.17,1.17,0.42,1.31,-0.48,-0.42,-0.41
144.87,-1.74,-1.28,-1.72,-1.25,1.25,0.42,1.28,-0.49,-0.46,-0.46
146.32,-1.80,-1.29,-1.86,-1.34,1.34,0.42,1.25,-0.46,-0.52,-0.51
147.78,-1.88,-1.33,-2.01,-1.44,1.44,0.42,1.22,-0.44,-0.57,-0.55
149.26,-1.95,-1.35,-2.22,-1.59,1.59,0.42,1.18,-0.36,-0.63,-0.60
150.75,-2.07,-1.39,-2.48,-1.78,1.78,0.41,1.15,-0.29,-0.70,-0.68
152.26,-2.36,-1.61,-2.75,-1.98,1.98,0.41,1.12,-0.38,-0.77,-0.75
153.78,-2.63,-1.80,-3.06,-2.22,2.22,0.40,1.08,-0.41,-0.84,-0.83
155.32,-3.02,-2.11,-3.34,-2.42,2.42,0.40,1.05,-0.60,-0.92,-0.91
156.88,-3.47,-2.48,-3.59,-2.59,2.59,0.39,1.02,-0.88,-1.00,-0.99
158.44,-3.84,-2.76,-3.78,-2.70,2.70,0.39,0.98,-1.14,-1.08,-1.08
160.03,-4.13,-2.96,-3.91,-2.75,2.75,0.38,0.95,-1.37,-1.15,-1.17
161.63,-4.41,-3.16,-3.96,-2.73,2.73,0.38,0.92,-1.67,-1.22,-1.25
163.24,-4.66,-3.34,-3.94,-2.65,2.65,0.37,0.89,-2.01,-1.29,-1.32
164.88,-4.86,-3.49,-3.85,-2.49,2.49,0.37,0.86,-2.37,-1.36,-1.37
166.53,-4.45,-3.02,-3.68,-2.27,2.27,0.36,0.82,-2.18,-1.41,-1.43
168.19,-3.85,-2.37,-3.45,-1.99,1.99,0.35,0.79,-1.85,-1.46,-1.47
169.87,-3.35,-1.83,-3.16,-1.66,1.66,0.35,0.76,-1.68,-1.49,-1.52
171.57,-2.38,-0.84,-2.83,-1.30,1.30,0.35,0.73,-1.08,-1.53,-1.54
173.29,-1.86,-0.30,-2.47,-0.92,0.92,0.34,0.70,-0.94,-1.55,-1.56
175.02,-1.55,0.03,-2.12,-0.55,0.55,0.34,0.67,-1.00,-1.57,-1.57
176.77,-1.30,0.30,-1.78,-0.20,0.20,0.33,0.64,-1.10,-1.59,-1.59
178.54,-1.10,0.50,-1.49,0.11,-0.11,0.33,0.62,-1.21,-1.60,-1.60
180.32,-1.01,0.59,-1.24,0.37,-0.37,0.32,0.59,-1.38,-1.61,-1.60
182.13,-0.96,0.64,-1.06,0.56,-0.56,0.32,0.56,-1.52,-1.62,-1.60
183.95,-0.94,0.68,-0.96,0.67,-0.67,0.32,0.53,-1.61,-1.63,-1.62
185.79,-0.98,0.64,-0.95,0.70,-0.70,0.31,0.51,-1.67,-1.65,-1.62
187.65,-1.06,0.59,-1.00,0.66,-0.66,0.31,0.48,-1.72,-1.66,-1.65
189.52,-1.16,0.50,-1.09,0.58,-0.58,0.31,0.45,-1.74,-1.67,-1.66
191.42,-1.27,0.42,-1.21,0.48,-0.48,0.30,0.43,-1.75,-1.69,-1.69
193.33,-1.39,0.32,-1.32,0.39,-0.39,0.30,0.40,-1.78,-1.71,-1.71
195.27,-1.51,0.22,-1.42,0.31,-0.31,0.30,0.38,-1.82,-1.73,-1.73
197.22,-1.61,0.15,-1.52,0.24,-0.24,0.30,0.36,-1.84,-1.75,-1.75
199.19,-1.70,0.09,-1.61,0.16,-0.16,0.30,0.33,-1.86,-1.78,-1.78
201.18,-1.73,0.08,-1.70,0.11,-0.11,0.29,0.31,-1.83,-1.80,-1.80
203.19,-1.81,0.02,-1.77,0.06,-0.06,0.29,0.29,-1.86,-1.83,-1.82
205.23,-1.90,-0.04,-1.84,0.02,-0.02,0.29,0.27,-1.91,-1.85,-1.85
207.28,-1.92,-0.06,-1.89,-0.01,0.01,0.29,0.25,-1.91,-1.87,-1.86
209.35,-1.92,-0.03,-1.93,-0.03,0.03,0.29,0.23,-1.89,-1.90,-1.89
211.44,-1.92,0.01,-1.96,-0.04,0.04,0.29,0.21,-1.88,-1.92,-1.93
213.56,-1.93,0.01,-1.98,-0.05,0.05,0.29,0.19,-1.88,-1.94,-1.93
215.69,-1.97,-0.02,-2.00,-0.05,0.05,0.29,0.17,-1.92,-1.95,-1.95
217.85,-2.03,-0.06,-2.01,-0.05,0.05,0.29,0.16,-1.98,-1.97,-1.97
220.03,-2.04,-0.06,-2.02,-0.05,0.05,0.29,0.14,-1.99,-1.98,-1.98
222.23,-2.04,-0.03,-2.03,-0.04,0.04,0.29,0.13,-2.00,-1.99,-2.00
224.45,-2.04,-0.04,-2.03,-0.04,0.04,0.29,0.12,-2.00,-1.99,-2.00
226.70,-2.04,-0.04,-2.03,-0.04,0.04,0.29,0.11,-2.00,-2.00,-2.00
228.96,-2.04,-0.04,-2.03,-0.03,0.03,0.29,0.10,-2.01,-1.99,-2.00
231.25,-2.03,-0.04,-2.02,-0.03,0.03,0.29,0.09,-2.00,-1.99,-1.99
233.57,-2.02,-0.04,-2.01,-0.03,0.03,0.29,0.08,-1.99,-1.98,-1.98
235.90,-2.01,-0.04,-2.00,-0.03,0.03,0.29,0.08,-1.98,-1.97,-1.97
238.26,-1.99,-0.03,-1.98,-0.03,0.03,0.29,0.08,-1.96,-1.95,-1.96
240.64,-1.97,-0.02,-1.96,-0.03,0.03,0.30,0.07,-1.94,-1.94,-1.94
243.05,-1.96,-0.04,-1.95,-0.03,0.03,0.30,0.07,-1.93,-1.92,-1.91
245.48,-1.94,-0.04,-1.94,-0.04,0.04,0.30,0.08,-1.90,-1.90,-1.90
247.93,-1.91,-0.04,-1.93,-0.05,0.05,0.30,0.08,-1.86,-1.88,-1.86
250.41,-1.89,-0.03,-1.92,-0.06,0.06,0.31,0.09,-1.82,-1.86,-1.85
252.92,-1.88,-0.06,-1.92,-0.09,0.09,0.31,0.10,-1.79,-1.83,-1.82
255.45,-1.89,-0.09,-1.92,-0.11,0.11,0.31,0.11,-1.78,-1.81,-1.80
258.00,-1.94,-0.16,-1.93,-0.15,0.15,0.32,0.12,-1.79,-1.79,-1.78
260.58,-1.95,-0.18,-1.95,-0.18,0.18,0.32,0.13,-1.76,-1.76,-1.77
263.19,-1.95,-0.21,-1.96,-0.22,0.22,0.33,0.15,-1.73,-1.74,-1.74
265.82,-1.95,-0.22,-1.98,-0.26,0.26,0.33,0.17,-1.69,-1.72,-1.72
268.48,-2.03,-0.33,-2.00,-0.30,0.30,0.34,0.18,-1.72,-1.70,-1.70
271.16,-2.06,-0.39,-2.02,-0.35,0.35,0.34,0.21,-1.71,-1.67,-1.67
273.87,-2.06,-0.40,-2.05,-0.40,0.40,0.35,0.23,-1.66,-1.65,-1.66
276.61,-2.09,-0.47,-2.08,-0.45,0.45,0.35,0.25,-1.64,-1.62,-1.62
279.38,-2.15,-0.55,-2.11,-0.51,0.51,0.36,0.28,-1.64,-1.60,-1.60
282.17,-2.16,-0.58,-2.13,-0.56,0.56,0.36,0.31,-1.60,-1.57,-1.57
284.99,-2.16,-0.62,-2.16,-0.61,0.61,0.37,0.34,-1.54,-1.55,-1.54
287.84,-2.15,-0.62,-2.19,-0.67,0.67,0.38,0.37,-1.48,-1.52,-1.53
290.72,-2.14,-0.65,-2.22,-0.73,0.73,0.39,0.40,-1.41,-1.49,-1.49
293.63,-2.22,-0.75,-2.25,-0.79,0.79,0.39,0.43,-1.43,-1.46,-1.47
296.57,-2.26,-0.83,-2.27,-0.84,0.84,0.40,0.47,-1.42,-1.43,-1.43
299.53,-2.33,-0.92,-2.30,-0.89,0.89,0.41,0.50,-1.44,-1.41,-1.41
302.53,-2.37,-0.98,-2.32,-0.94,0.94,0.42,0.54,-1.43,-1.38,-1.39
305.55,-2.38,-1.03,-2.34,-0.99,0.99,0.43,0.58,-1.39,-1.36,-1.35
308.61,-2.37,-1.04,-2.36,-1.03,1.03,0.44,0.62,-1.34,-1.33,-1.33
311.69,-2.38,-1.07,-2.38,-1.07,1.07,0.45,0.66,-1.31,-1.31,-1.30
314.81,-2.44,-1.16,-2.40,-1.11,1.11,0.46,0.70,-1.32,-1.29,-1.28
317.96,-2.46,-1.20,-2.43,-1.16,1.16,0.48,0.74,-1.30,-1.27,-1.26
321.14,-2.46,-1.20,-2.45,-1.20,1.20,0.49,0.78,-1.26,-1.25,-1.26
324.35,-2.46,-1.22,-2.47,-1.23,1.23,0.50,0.83,-1.23,-1.24,-1.24
327.59,-2.46,-1.24,-2.49,-1.27,1.27,0.51,0.87,-1.19,-1.22,-1.22
330.87,-2.46,-1.24,-2.51,-1.30,1.30,0.53,0.92,-1.16,-1.21,-1.22
334.18,-2.46,-1.26,-2.53,-1.33,1.33,0.54,0.96,-1.12,-1.20,-1.20
337.52,-2.51,-1.32,-2.56,-1.37,1.37,0.56,1.01,-1.14,-1.19,-1.19
340.90,-2.59,-1.41,-2.59,-1.40,1.40,0.58,1.06,-1.18,-1.18,-1.17
344.30,-2.66,-1.49,-2.62,-1.44,1.44,0.60,1.11,-1.22,-1.18,-1.17
347.75,-2.67,-1.50,-2.65,-1.48,1.48,0.61,1.16,-1.19,-1.17,-1.17
351.23,-2.68,-1.52,-2.67,-1.51,1.51,0.63,1.22,-1.17,-1.17,-1.16
354.74,-2.74,-1.57,-2.70,-1.54,1.54,0.65,1.27,-1.20,-1.16,-1.17
358.28,-2.76,-1.60,-2.73,-1.57,1.57,0.68,1.32,-1.19,-1.16,-1.16
361.87,-2.76,-1.60,-2.75,-1.59,1.59,0.70,1.38,-1.17,-1.16,-1.16
365.49,-2.75,-1.60,-2.77,-1.61,1.61,0.72,1.43,-1.14,-1.16,-1.15
369.14,-2.78,-1.61,-2.78,-1.62,1.62,0.75,1.49,-1.15,-1.16,-1.16
372.83,-2.82,-1.65,-2.79,-1.63,1.63,0.77,1.55,-1.19,-1.16,-1.17
376.56,-2.83,-1.66,-2.80,-1.63,1.63,0.80,1.61,-1.19,-1.16,-1.17
380.33,-2.82,-1.66,-2.81,-1.64,1.64,0.83,1.66,-1.18,-1.17,-1.16
384.13,-2.81,-1.65,-2.81,-1.64,1.64,0.86,1.72,-1.17,-1.17,-1.16
387.97,-2.81,-1.63,-2.83,-1.65,1.65,0.89,1.79,-1.16,-1.18,-1.17
391.85,-2.80,-1.61,-2.84,-1.66,1.66,0.92,1.85,-1.14,-1.18,-1.19
395.77,-2.80,-1.62,-2.86,-1.67,1.67,0.96,1.91,-1.13,-1.19,-1.18
399.73,-2.85,-1.66,-2.88,-1.68,1.68,1.00,1.97,-1.16,-1.19,-1.19
403.72,-2.90,-1.71,-2.90,-1.70,1.70,1.03,2.03,-1.20,-1.20,-1.19
407.76,-2.91,-1.71,-2.93,-1.72,1.72,1.07,2.09,-1.19,-1.20,-1.20
411.84,-2.91,-1.71,-2.94,-1.74,1.74,1.12,2.15,-1.17,-1.21,-1.20
415.96,-2.98,-1.77,-2.96,-1.75,1.75,1.16,2.21,-1.22,-1.21,-1.20
420.12,-3.01,-1.80,-2.98,-1.77,1.77,1.21,2.27,-1.23,-1.21,-1.21
424.32,-3.01,-1.80,-2.99,-1.79,1.79,1.26,2.33,-1.22,-1.20,-1.21
428.56,-3.02,-1.82,-3.00,-1.81,1.81,1.31,2.39,-1.21,-1.19,-1.20
432.85,-3.07,-1.88,-3.01,-1.83,1.83,1.36,2.45,-1.24,-1.18,-1.19
437.18,-3.06,-1.88,-3.00,-1.85,1.85,1.42,2.50,-1.21,-1.15,-1.18
441.55,-3.02,-1.88,-2.99,-1.86,1.86,1.47,2.55,-1.16,-1.13,-1.14
445.96,-2.98,-1.87,-2.97,-1.87,1.87,1.53,2.60,-1.10,-1.10,-1.11
450.42,-2.93,-1.85,-2.95,-1.88,1.88,1.60,2.65,-1.04,-1.06,-1.08
454.93,-2.90,-1.86,-2.92,-1.89,1.89,1.66,2.70,-1.00,-1.02,-1.03
459.48,-2.90,-1.91,-2.88,-1.90,1.90,1.73,2.74,-1.00,-0.98,-0.99
464.07,-2.84,-1.90,-2.84,-1.91,1.91,1.80,2.77,-0.93,-0.93,-0.94
468.71,-2.79,-1.91,-2.81,-1.92,1.92,1.87,2.81,-0.86,-0.88,-0.88
473.40,-2.78,-1.94,-2.78,-1.94,1.94,1.94,2.83,-0.84,-0.84,-0.84
478.13,-2.76,-1.98,-2.75,-1.96,1.96,2.01,2.86,-0.80,-0.79,-0.78
482.91,-2.73,-1.99,-2.72,-1.98,1.98,2.09,2.88,-0.75,-0.74,-0.74
487.74,-2.69,-1.99,-2.70,-2.00,2.00,2.16,2.89,-0.69,-0.70,-0.70
492.62,-2.65,-2.00,-2.69,-2.02,2.02,2.24,2.90,-0.63,-0.67,-0.65
497.55,-2.63,-2.00,-2.68,-2.04,2.04,2.32,2.90,-0.59,-0.64,-0.63
502.52,-2.67,-2.07,-2.68,-2.07,2.07,2.39,2.90,-0.60,-0.61,-0.60
507.55,-2.71,-2.12,-2.69,-2.09,2.09,2.46,2.89,-0.62,-0.60,-0.59
