frequency,raw,error,smoothed,error_smoothed,equalization,parametric_eq,fixed_band_eq,equalized_raw,equalized_smoothed,target
20.00,-12.92,-12.20,-12.92,-12.23,12.23,11.88,3.72,-0.69,-0.69,-0.72
20.20,-12.77,-12.14,-12.76,-12.15,12.15,11.87,3.82,-0.62,-0.61,-0.63
20.40,-12.61,-12.06,-12.61,-12.07,12.07,11.86,3.93,-0.54,-0.54,-0.55
20.61,-12.46,-11.98,-12.45,-11.98,11.98,11.84,4.04,-0.48,-0.47,-0.48
20.81,-12.30,-11.91,-12.30,-11.90,11.90,11.81,4.15,-0.40,-0.40,-0.39
21.02,-12.14,-11.83,-12.14,-11.81,11.81,11.78,4.26,-0.33,-0.33,-0.31
21.23,-11.99,-11.74,-11.98,-11.72,11.72,11.73,4.38,-0.27,-0.27,-0.25
21.44,-11.83,-11.64,-11.83,-11.62,11.62,11.68,4.50,-0.20,-0.21,-0.19
21.66,-11.68,-11.54,-11.67,-11.52,11.52,11.62,4.63,-0.16,-0.15,-0.14
21.87,-11.51,-11.43,-11.52,-11.42,11.42,11.56,4.76,-0.09,-0.09,-0.09
22.09,-11.36,-11.32,-11.36,-11.32,11.32,11.49,4.89,-0.04,-0.04,-0.04
22.31,-11.20,-11.22,-11.20,-11.21,11.21,11.41,5.03,0.01,0.01,0.01
22.54,-11.05,-11.10,-11.05,-11.10,11.10,11.33,5.17,0.05,0.06,0.05
22.76,-10.89,-10.98,-10.89,-10.99,10.99,11.24,5.31,0.10,0.10,0.09
22.99,-10.74,-10.86,-10.73,-10.87,10.87,11.14,5.46,0.13,0.14,0.12
23.22,-10.58,-10.74,-10.58,-10.75,10.75,11.04,5.61,0.17,0.17,0.16
23.45,-10.42,-10.62,-10.42,-10.63,10.63,10.94,5.76,0.22,0.21,0.20
23.69,-10.27,-10.51,-10.26,-10.51,10.51,10.83,5.92,0.24,0.25,0.24
23.92,-10.10,-10.39,-10.11,-10.39,10.39,10.72,6.08,0.29,0.28,0.28
24.16,-9.95,-10.28,-9.95,-10.27,10.27,10.61,6.25,0.32,0.32,0.33
24.40,-9.79,-10.16,-9.79,-10.15,10.15,10.49,6.42,0.35,0.35,0.36
24.65,-9.64,-10.02,-9.64,-10.03,10.03,10.36,6.59,0.39,0.39,0.38
24.89,-9.48,-9.90,-9.48,-9.91,9.91,10.24,6.76,0.42,0.42,0.41
25.14,-9.32,-9.78,-9.33,-9.78,9.78,10.11,6.94,0.46,0.45,0.45
25.39,-9.17,-9.66,-9.18,-9.66,9.66,9.99,7.12,0.49,0.49,0.48
25.65,-9.03,-9.55,-9.02,-9.54,9.54,9.86,7.31,0.52,0.52,0.52
25.91,-8.88,-9.42,-8.87,-9.42,9.42,9.72,7.49,0.54,0.55,0.54
26.16,-8.71,-9.29,-8.72,-9.30,9.30,9.59,7.68,0.59,0.58,0.57
26.43,-8.57,-9.18,-8.57,-9.18,9.18,9.46,7.86,0.61,0.61,0.61
26.69,-8.42,-9.06,-8.42,-9.06,9.06,9.32,8.05,0.64,0.64,0.64
26.96,-8.27,-8.94,-8.27,-8.94,8.94,9.19,8.23,0.67,0.67,0.67
27.23,-8.13,-8.83,-8.12,-8.82,8.82,9.05,8.41,0.69,0.70,0.70
27.50,-7.98,-8.71,-7.97,-8.70,8.70,8.92,8.59,0.73,0.73,0.73
27.77,-7.82,-8.58,-7.82,-8.59,8.59,8.78,8.77,0.76,0.76,0.75
28.05,-7.68,-8.47,-7.68,-8.47,8.47,8.65,8.94,0.79,0.79,0.79
28.33,-7.54,-8.35,-7.53,-8.36,8.36,8.51,9.10,0.82,0.82,0.81
28.62,-7.39,-8.23,-7.39,-8.24,8.24,8.38,9.25,0.85,0.85,0.84
28.90,-7.25,-8.13,-7.25,-8.13,8.13,8.24,9.40,0.88,0.88,0.88
29.19,-7.11,-8.01,-7.11,-8.02,8.02,8.11,9.53,0.91,0.91,0.90
29.48,-6.97,-7.92,-6.97,-7.91,7.91,7.97,9.65,0.94,0.94,0.95
29.78,-6.83,-7.79,-6.84,-7.80,7.80,7.84,9.75,0.97,0.97,0.96
30.08,-6.70,-7.69,-6.70,-7.69,7.69,7.71,9.84,1.00,0.99,0.99
30.38,-6.57,-7.59,-6.57,-7.59,7.59,7.58,9.91,1.02,1.02,1.02
30.68,-6.44,-7.49,-6.44,-7.49,7.49,7.45,9.96,1.05,1.05,1.05
30.99,-6.32,-7.39,-6.31,-7.38,7.38,7.32,9.99,1.07,1.08,1.07
31.30,-6.19,-7.28,-6.18,-7.28,7.28,7.19,10.01,1.10,1.10,1.09
31.61,-6.06,-7.18,-6.06,-7.18,7.18,7.06,10.00,1.13,1.12,1.12
31.93,-5.94,-7.08,-5.94,-7.09,7.09,6.94,9.97,1.15,1.15,1.14
32.24,-5.82,-6.98,-5.82,-6.99,6.99,6.81,9.93,1.17,1.17,1.16
32.57,-5.70,-6.89,-5.70,-6.89,6.89,6.69,9.86,1.19,1.19,1.19
32.89,-5.58,-6.79,-5.58,-6.80,6.80,6.57,9.78,1.22,1.21,1.21
33.22,-5.47,-6.70,-5.47,-6.70,6.70,6.45,9.68,1.23,1.23,1.23
33.55,-5.36,-6.61,-5.36,-6.61,6.61,6.33,9.56,1.25,1.25,1.25
33.89,-5.25,-6.51,-5.24,-6.51,6.51,6.21,9.44,1.26,1.27,1.26
34.23,-5.14,-6.42,-5.13,-6.41,6.41,6.09,9.30,1.28,1.28,1.28
34.57,-5.03,-6.32,-5.02,-6.32,6.32,5.98,9.15,1.29,1.29,1.29
34.92,-4.92,-6.22,-4.92,-6.22,6.22,5.87,8.99,1.30,1.30,1.30
35.27,-4.81,-6.13,-4.81,-6.12,6.12,5.75,8.82,1.32,1.31,1.32
35.62,-4.71,-6.02,-4.70,-6.03,6.03,5.64,8.65,1.32,1.32,1.31
35.97,-4.61,-5.93,-4.60,-5.93,5.93,5.53,8.47,1.32,1.33,1.32
36.33,-4.50,-5.84,-4.50,-5.83,5.83,5.42,8.29,1.33,1.33,1.34
36.70,-4.40,-5.73,-4.39,-5.73,5.73,5.32,8.11,1.33,1.34,1.33
37.06,-4.29,-5.62,-4.29,-5.63,5.63,5.21,7.92,1.34,1.34,1.33
37.43,-4.19,-5.52,-4.19,-5.53,5.53,5.11,7.74,1.34,1.34,1.33
37.81,-4.09,-5.42,-4.09,-5.43,5.43,5.01,7.56,1.34,1.34,1.33
38.19,-3.99,-5.32,-3.99,-5.32,5.32,4.91,7.37,1.34,1.33,1.33
38.57,-3.90,-5.23,-3.89,-5.22,5.22,4.81,7.19,1.33,1.33,1.33
38.95,-3.80,-5.13,-3.80,-5.12,5.12,4.71,7.01,1.33,1.33,1.33
39.34,-3.71,-5.02,-3.70,-5.02,5.02,4.61,6.84,1.32,1.32,1.31
39.74,-3.61,-4.92,-3.61,-4.92,4.92,4.52,6.66,1.32,1.32,1.31
40.14,-3.52,-4.82,-3.51,-4.82,4.82,4.42,6.49,1.31,1.31,1.30
40.54,-3.43,-4.73,-3.42,-4.73,4.73,4.33,6.33,1.30,1.31,1.30
40.94,-3.33,-4.62,-3.33,-4.63,4.63,4.24,6.16,1.30,1.30,1.29
41.35,-3.24,-4.53,-3.24,-4.53,4.53,4.15,6.00,1.29,1.29,1.29
41.76,-3.15,-4.43,-3.15,-4.43,4.43,4.07,5.84,1.29,1.28,1.28
42.18,-3.06,-4.33,-3.06,-4.34,4.34,3.98,5.69,1.28,1.27,1.27
42.60,-2.98,-4.24,-2.98,-4.24,4.24,3.90,5.54,1.26,1.26,1.26
43.03,-2.89,-4.15,-2.89,-4.14,4.14,3.82,5.40,1.26,1.25,1.26
43.46,-2.81,-4.06,-2.80,-4.05,4.05,3.74,5.25,1.24,1.24,1.25
43.90,-2.73,-3.96,-2.72,-3.95,3.95,3.66,5.12,1.22,1.23,1.23
44.33,-2.65,-3.86,-2.64,-3.86,3.86,3.58,4.98,1.21,1.22,1.21
44.78,-2.56,-3.76,-2.55,-3.77,3.77,3.51,4.85,1.21,1.21,1.20
45.23,-2.48,-3.67,-2.47,-3.67,3.67,3.44,4.73,1.20,1.20,1.19
45.68,-2.40,-3.58,-2.39,-3.58,3.58,3.36,4.60,1.19,1.19,1.18
46.13,-2.32,-3.49,-2.31,-3.49,3.49,3.30,4.48,1.18,1.18,1.17
46.60,-2.24,-3.41,-2.24,-3.41,3.41,3.23,4.37,1.17,1.17,1.17
47.06,-2.16,-3.32,-2.16,-3.32,3.32,3.16,4.25,1.17,1.16,1.16
47.53,-2.08,-3.23,-2.09,-3.24,3.24,3.10,4.14,1.16,1.15,1.15
48.01,-2.01,-3.16,-2.02,-3.16,3.16,3.04,4.04,1.15,1.14,1.15
48.49,-1.95,-3.09,-1.95,-3.08,3.08,2.98,3.93,1.14,1.14,1.14
48.97,-1.88,-3.01,-1.88,-3.01,3.01,2.92,3.83,1.14,1.13,1.13
49.46,-1.82,-2.93,-1.82,-2.94,2.94,2.87,3.74,1.13,1.13,1.11
49.96,-1.77,-2.87,-1.76,-2.88,2.88,2.81,3.64,1.11,1.12,1.10
50.46,-1.71,-2.82,-1.70,-2.82,2.82,2.76,3.55,1.11,1.12,1.11
50.96,-1.65,-2.76,-1.65,-2.76,2.76,2.71,3.46,1.11,1.11,1.11
51.47,-1.60,-2.70,-1.60,-2.71,2.71,2.67,3.37,1.11,1.11,1.10
51.99,-1.55,-2.65,-1.55,-2.66,2.66,2.63,3.29,1.11,1.11,1.10
52.51,-1.51,-2.61,-1.51,-2.62,2.62,2.58,3.21,1.11,1.10,1.10
53.03,-1.47,-2.57,-1.48,-2.57,2.57,2.54,3.13,1.11,1.10,1.10
53.56,-1.44,-2.54,-1.44,-2.54,2.54,2.51,3.05,1.10,1.09,1.10
54.10,-1.41,-2.50,-1.42,-2.50,2.50,2.47,2.97,1.09,1.09,1.09
54.64,-1.38,-2.46,-1.39,-2.47,2.47,2.44,2.90,1.09,1.08,1.08
55.18,-1.37,-2.44,-1.37,-2.44,2.44,2.41,2.82,1.07,1.07,1.07
55.74,-1.36,-2.41,-1.35,-2.41,2.41,2.38,2.75,1.06,1.06,1.05
56.29,-1.34,-2.39,-1.33,-2.38,2.38,2.36,2.68,1.05,1.05,1.05
56.86,-1.32,-2.35,-1.32,-2.36,2.36,2.34,2.61,1.04,1.04,1.03
57.42,-1.32,-2.33,-1.31,-2.33,2.33,2.31,2.54,1.01,1.02,1.01
58.00,-1.31,-2.31,-1.30,-2.30,2.30,2.29,2.48,0.99,1.00,1.00
58.58,-1.29,-2.27,-1.29,-2.27,2.27,2.27,2.41,0.98,0.98,0.98
59.16,-1.28,-2.25,-1.28,-2.24,2.24,2.26,2.34,0.96,0.96,0.97
59.76,-1.27,-2.22,-1.27,-2.21,2.21,2.24,2.28,0.94,0.94,0.95
60.35,-1.26,-2.18,-1.26,-2.18,2.18,2.22,2.21,0.92,0.92,0.92
60.96,-1.24,-2.15,-1.25,-2.14,2.14,2.20,2.15,0.91,0.89,0.91
61.57,-1.23,-2.09,-1.24,-2.11,2.11,2.18,2.09,0.88,0.87,0.86
62.18,-1.23,-2.06,-1.22,-2.07,2.07,2.16,2.02,0.84,0.85,0.83
62.80,-1.22,-2.04,-1.21,-2.03,2.03,2.13,1.96,0.81,0.82,0.82
63.43,-1.21,-1.99,-1.19,-1.99,1.99,2.11,1.90,0.79,0.80,0.78
64.07,-1.20,-1.96,-1.17,-1.95,1.95,2.07,1.83,0.76,0.78,0.76
64.71,-1.16,-1.91,-1.15,-1.91,1.91,2.04,1.77,0.76,0.76,0.75
65.35,-1.14,-1.87,-1.13,-1.87,1.87,2.00,1.71,0.74,0.74,0.73
66.01,-1.11,-1.83,-1.10,-1.83,1.83,1.96,1.64,0.72,0.73,0.72
66.67,-1.07,-1.78,-1.07,-1.79,1.79,1.91,1.58,0.72,0.72,0.71
67.33,-1.04,-1.74,-1.04,-1.75,1.75,1.85,1.52,0.71,0.71,0.70
68.01,-1.01,-1.70,-1.01,-1.70,1.70,1.79,1.45,0.70,0.70,0.69
68.69,-0.98,-1.66,-0.97,-1.66,1.66,1.73,1.39,0.68,0.69,0.68
69.37,-0.94,-1.62,-0.94,-1.62,1.62,1.66,1.33,0.68,0.68,0.68
70.07,-0.91,-1.58,-0.90,-1.57,1.57,1.59,1.26,0.67,0.67,0.67
70.77,-0.86,-1.53,-0.87,-1.53,1.53,1.51,1.20,0.67,0.66,0.67
71.48,-0.82,-1.48,-0.83,-1.48,1.48,1.43,1.14,0.66,0.65,0.66
72.19,-0.78,-1.42,-0.79,-1.43,1.43,1.35,1.07,0.66,0.64,0.64
72.91,-0.74,-1.38,-0.75,-1.38,1.38,1.26,1.01,0.65,0.63,0.64
73.64,-0.71,-1.33,-0.71,-1.33,1.33,1.18,0.94,0.62,0.62,0.62
74.38,-0.68,-1.29,-0.67,-1.28,1.28,1.10,0.88,0.60,0.61,0.61
75.12,-0.64,-1.23,-0.63,-1.22,1.22,1.01,0.82,0.59,0.60,0.59
75.87,-0.61,-1.19,-0.58,-1.17,1.17,0.93,0.75,0.56,0.58,0.58
76.63,-0.56,-1.13,-0.54,-1.11,1.11,0.84,0.69,0.55,0.57,0.57
77.40,-0.50,-1.05,-0.50,-1.05,1.05,0.76,0.62,0.56,0.56,0.55
78.17,-0.45,-0.98,-0.45,-1.00,1.00,0.68,0.56,0.55,0.55,0.53
78.95,-0.39,-0.92,-0.40,-0.94,0.94,0.60,0.49,0.55,0.53,0.53
79.74,-0.35,-0.87,-0.36,-0.88,0.88,0.52,0.43,0.53,0.53,0.52
80.54,-0.31,-0.82,-0.31,-0.82,0.82,0.44,0.36,0.52,0.52,0.51
81.35,-0.27,-0.77,-0.25,-0.77,0.77,0.36,0.30,0.50,0.51,0.50
82.16,-0.22,-0.71,-0.20,-0.71,0.71,0.29,0.23,0.49,0.51,0.49
82.98,-0.17,-0.67,-0.15,-0.66,0.66,0.22,0.16,0.49,0.50,0.50
83.81,-0.11,-0.60,-0.11,-0.61,0.61,0.15,0.10,0.50,0.50,0.49
84.65,-0.06,-0.54,-0.06,-0.56,0.56,0.08,0.03,0.50,0.50,0.48
85.50,-0.01,-0.50,-0.02,-0.51,0.51,0.02,-0.04,0.50,0.49,0.49
86.35,0.05,-0.44,0.03,-0.46,0.46,-0.04,-0.10,0.52,0.49,0.49
87.22,0.09,-0.39,0.07,-0.42,0.42,-0.11,-0.17,0.51,0.49,0.48
88.09,0.11,-0.37,0.11,-0.37,0.37,-0.17,-0.24,0.48,0.48,0.48
88.97,0.15,-0.32,0.15,-0.32,0.32,-0.22,-0.31,0.47,0.47,0.47
89.86,0.18,-0.28,0.19,-0.27,0.27,-0.28,-0.38,0.45,0.46,0.46
90.76,0.22,-0.22,0.23,-0.21,0.21,-0.34,-0.45,0.44,0.44,0.44
91.66,0.25,-0.17,0.26,-0.16,0.16,-0.39,-0.52,0.41,0.42,0.42
92.58,0.28,-0.11,0.30,-0.10,0.10,-0.44,-0.59,0.38,0.40,0.39
93.51,0.31,-0.06,0.33,-0.03,0.03,-0.49,-0.66,0.35,0.37,0.37
94.44,0.35,0.01,0.37,0.03,-0.03,-0.54,-0.73,0.32,0.33,0.34
95.39,0.40,0.10,0.40,0.10,-0.10,-0.59,-0.80,0.30,0.29,0.30
96.34,0.43,0.17,0.43,0.18,-0.18,-0.64,-0.87,0.25,0.25,0.26
97.30,0.47,0.27,0.46,0.26,-0.26,-0.68,-0.94,0.21,0.20,0.20
98.28,0.50,0.35,0.50,0.34,-0.34,-0.73,-1.02,0.16,0.15,0.15
99.26,0.52,0.42,0.53,0.43,-0.43,-0.77,-1.09,0.10,0.10,0.10
100.25,0.55,0.51,0.55,0.51,-0.51,-0.82,-1.16,0.04,0.04,0.04
101.25,0.58,0.60,0.58,0.59,-0.59,-0.86,-1.23,-0.00,-0.01,-0.02
102.27,0.60,0.68,0.59,0.66,-0.66,-0.90,-1.30,-0.06,-0.07,-0.08
103.29,0.61,0.75,0.61,0.74,-0.74,-0.94,-1.37,-0.13,-0.13,-0.14
104.32,0.63,0.82,0.62,0.81,-0.81,-0.98,-1.44,-0.18,-0.19,-0.19
105.37,0.65,0.91,0.63,0.88,-0.88,-1.02,-1.51,-0.23,-0.25,-0.26
106.42,0.66,0.98,0.63,0.94,-0.94,-1.06,-1.58,-0.28,-0.31,-0.32
107.48,0.66,1.03,0.64,1.01,-1.01,-1.10,-1.65,-0.35,-0.37,-0.37
108.56,0.65,1.08,0.65,1.07,-1.07,-1.14,-1.72,-0.42,-0.43,-0.43
109.64,0.63,1.12,0.66,1.14,-1.14,-1.18,-1.78,-0.50,-0.48,-0.49
110.74,0.63,1.17,0.67,1.20,-1.20,-1.21,-1.84,-0.57,-0.54,-0.54
111.85,0.64,1.22,0.68,1.27,-1.27,-1.25,-1.90,-0.62,-0.59,-0.58
112.97,0.66,1.31,0.69,1.33,-1.33,-1.29,-1.96,-0.67,-0.64,-0.65
114.10,0.69,1.38,0.71,1.40,-1.40,-1.32,-2.01,-0.70,-0.69,-0.69
115.24,0.72,1.46,0.73,1.46,-1.46,-1.36,-2.06,-0.74,-0.73,-0.74
116.39,0.74,1.53,0.76,1.53,-1.53,-1.40,-2.11,-0.79,-0.78,-0.79
117.55,0.77,1.60,0.78,1.60,-1.60,-1.43,-2.16,-0.82,-0.82,-0.83
118.73,0.81,1.68,0.81,1.67,-1.67,-1.47,-2.20,-0.85,-0.85,-0.87
119.92,0.85,1.75,0.84,1.73,-1.73,-1.51,-2.23,-0.88,-0.89,-0.90
121.12,0.88,1.81,0.87,1.80,-1.80,-1.54,-2.27,-0.91,-0.92,-0.93
122.33,0.90,1.86,0.90,1.86,-1.86,-1.58,-2.30,-0.95,-0.96,-0.96
123.55,0.93,1.92,0.92,1.91,-1.91,-1.62,-2.32,-0.98,-0.99,-0.99
124.79,0.96,1.98,0.94,1.96,-1.96,-1.66,-2.34,-1.00,-1.02,-1.02
126.03,0.98,2.02,0.96,2.00,-2.00,-1.69,-2.36,-1.02,-1.05,-1.04
127.29,0.99,2.06,0.97,2.04,-2.04,-1.73,-2.37,-1.05,-1.07,-1.07
128.57,0.99,2.10,0.98,2.08,-2.08,-1.77,-2.37,-1.09,-1.10,-1.11
129.85,0.99,2.12,0.98,2.11,-2.11,-1.81,-2.38,-1.12,-1.13,-1.13
131.15,0.98,2.14,0.99,2.15,-2.15,-1.85,-2.37,-1.16,-1.16,-1.16
132.46,0.97,2.17,0.99,2.17,-2.17,-1.89,-2.37,-1.20,-1.19,-1.20
133.79,0.97,2.19,0.99,2.20,-2.20,-1.94,-2.36,-1.23,-1.22,-1.22
135.12,0.97,2.22,0.98,2.23,-2.23,-1.98,-2.35,-1.26,-1.25,-1.25
136.48,0.97,2.25,0.98,2.26,-2.26,-2.02,-2.33,-1.29,-1.28,-1.28
137.84,0.97,2.28,0.98,2.30,-2.30,-2.07,-2.32,-1.32,-1.31,-1.31
139.22,0.97,2.33,0.98,2.33,-2.33,-2.11,-2.30,-1.36,-1.35,-1.36
140.61,0.97,2.36,0.98,2.36,-2.36,-2.16,-2.27,-1.39,-1.38,-1.39
142.02,0.97,2.38,0.99,2.40,-2.40,-2.21,-2.25,-1.43,-1.41,-1.41
143.44,0.97,2.42,0.99,2.44,-2.44,-2.25,-2.22,-1.46,-1.45,-1.45
144.87,0.98,2.47,0.99,2.47,-2.47,-2.30,-2.19,-1.49,-1.48,-1.49
146.32,0.99,2.52,0.99,2.51,-2.51,-2.35,-2.16,-1.51,-1.52,-1.53
147.78,0.99,2.55,0.98,2.54,-2.54,-2.40,-2.13,-1.55,-1.56,-1.56
149.26,0.99,2.58,0.97,2.57,-2.57,-2.46,-2.10,-1.58,-1.60,-1.59
150.75,0.98,2.62,0.96,2.60,-2.60,-2.51,-2.07,-1.61,-1.64,-1.64
152.26,0.97,2.65,0.95,2.62,-2.62,-2.56,-2.04,-1.65,-1.68,-1.68
153.78,0.94,2.65,0.93,2.64,-2.64,-2.61,-2.01,-1.70,-1.72,-1.71
155.32,0.92,2.68,0.91,2.66,-2.66,-2.66,-1.98,-1.74,-1.76,-1.76
156.88,0.88,2.67,0.88,2.68,-2.68,-2.71,-1.95,-1.80,-1.80,-1.79
158.44,0.86,2.71,0.86,2.70,-2.70,-2.76,-1.92,-1.84,-1.84,-1.85
160.03,0.81,2.70,0.83,2.71,-2.71,-2.80,-1.89,-1.90,-1.89,-1.89
161.63,0.79,2.73,0.80,2.73,-2.73,-2.85,-1.86,-1.93,-1.93,-1.94
163.24,0.76,2.74,0.77,2.74,-2.74,-2.89,-1.83,-1.98,-1.97,-1.98
164.88,0.71,2.73,0.74,2.76,-2.76,-2.92,-1.81,-2.05,-2.01,-2.02
166.53,0.69,2.75,0.72,2.78,-2.78,-2.96,-1.78,-2.08,-2.06,-2.06
168.19,0.68,2.78,0.70,2.79,-2.79,-2.98,-1.76,-2.11,-2.10,-2.10
169.87,0.66,2.80,0.68,2.81,-2.81,-3.01,-1.73,-2.15,-2.14,-2.14
171.57,0.65,2.82,0.66,2.83,-2.83,-3.02,-1.71,-2.18,-2.17,-2.17
173.29,0.64,2.85,0.64,2.85,-2.85,-3.03,-1.69,-2.20,-2.21,-2.21
175.02,0.62,2.87,0.62,2.86,-2.86,-3.03,-1.67,-2.24,-2.24,-2.25
176.77,0.61,2.89,0.60,2.87,-2.87,-3.03,-1.66,-2.26,-2.27,-2.28
178.54,0.59,2.90,0.58,2.88,-2.88,-3.02,-1.64,-2.29,-2.30,-2.31
180.32,0.58,2.92,0.56,2.89,-2.89,-3.01,-1.62,-2.30,-2.33,-2.34
182.13,0.55,2.91,0.54,2.89,-2.89,-2.99,-1.61,-2.34,-2.35,-2.36
183.95,0.51,2.89,0.51,2.89,-2.89,-2.96,-1.60,-2.37,-2.37,-2.38
185.79,0.48,2.88,0.49,2.88,-2.88,-2.93,-1.59,-2.40,-2.40,-2.40
187.65,0.46,2.88,0.46,2.87,-2.87,-2.90,-1.58,-2.41,-2.41,-2.42
189.52,0.43,2.86,0.43,2.86,-2.86,-2.86,-1.57,-2.43,-2.43,-2.43
191.42,0.39,2.84,0.40,2.84,-2.84,-2.82,-1.57,-2.45,-2.45,-2.45
193.33,0.35,2.81,0.37,2.83,-2.83,-2.78,-1.56,-2.47,-2.46,-2.46
195.27,0.31,2.78,0.33,2.81,-2.81,-2.74,-1.56,-2.49,-2.47,-2.47
197.22,0.28,2.77,0.30,2.78,-2.78,-2.69,-1.55,-2.50,-2.49,-2.49
199.19,0.25,2.76,0.26,2.76,-2.76,-2.65,-1.55,-2.50,-2.50,-2.51
201.18,0.22,2.74,0.22,2.73,-2.73,-2.60,-1.55,-2.51,-2.51,-2.52
203.19,0.19,2.71,0.18,2.70,-2.70,-2.56,-1.55,-2.51,-2.52,-2.52
205.23,0.16,2.70,0.14,2.68,-2.68,-2.51,-1.55,-2.51,-2.53,-2.54
207.28,0.11,2.65,0.10,2.65,-2.65,-2.46,-1.54,-2.53,-2.55,-2.54
209.35,0.07,2.63,0.06,2.62,-2.62,-2.42,-1.54,-2.54,-2.56,-2.56
211.44,0.01,2.59,0.01,2.58,-2.58,-2.37,-1.55,-2.57,-2.57,-2.58
213.56,-0.04,2.55,-0.03,2.55,-2.55,-2.33,-1.55,-2.59,-2.58,-2.59
215.69,-0.09,2.50,-0.08,2.51,-2.51,-2.28,-1.55,-2.60,-2.59,-2.59
217.85,-0.16,2.45,-0.13,2.47,-2.47,-2.24,-1.55,-2.63,-2.60,-2.61
220.03,-0.19,2.43,-0.19,2.43,-2.43,-2.20,-1.54,-2.62,-2.62,-2.62
222.23,-0.24,2.40,-0.24,2.39,-2.39,-2.15,-1.54,-2.63,-2.63,-2.64
224.45,-0.29,2.35,-0.29,2.35,-2.35,-2.11,-1.54,-2.64,-2.64,-2.64
226.70,-0.34,2.32,-0.35,2.31,-2.31,-2.07,-1.54,-2.65,-2.66,-2.66
228.96,-0.41,2.26,-0.40,2.27,-2.27,-2.03,-1.53,-2.68,-2.67,-2.67
231.25,-0.46,2.22,-0.46,2.23,-2.23,-1.99,-1.53,-2.69,-2.69,-2.68
233.57,-0.52,2.18,-0.52,2.19,-2.19,-1.95,-1.52,-2.70,-2.70,-2.70
235.90,-0.59,2.12,-0.57,2.14,-2.14,-1.91,-1.51,-2.73,-2.71,-2.71
238.26,-0.64,2.09,-0.63,2.10,-2.10,-1.87,-1.50,-2.73,-2.73,-2.73
240.64,-0.69,2.06,-0.69,2.05,-2.05,-1.83,-1.49,-2.73,-2.74,-2.75
243.05,-0.74,2.02,-0.76,2.00,-2.00,-1.78,-1.47,-2.73,-2.75,-2.76
245.48,-0.80,1.97,-0.82,1.94,-1.94,-1.74,-1.46,-2.74,-2.76,-2.77
247.93,-0.90,1.88,-0.88,1.88,-1.88,-1.70,-1.44,-2.78,-2.77,-2.78
250.41,-0.96,1.83,-0.95,1.82,-1.82,-1.66,-1.41,-2.78,-2.77,-2.79
252.92,-1.04,1.74,-1.02,1.76,-1.76,-1.61,-1.39,-2.79,-2.77,-2.78
255.45,-1.09,1.69,-1.08,1.69,-1.69,-1.57,-1.36,-2.78,-2.77,-2.78
258.00,-1.15,1.62,-1.15,1.62,-1.62,-1.52,-1.33,-2.76,-2.77,-2.77
260.58,-1.23,1.54,-1.22,1.54,-1.54,-1.47,-1.30,-2.77,-2.76,-2.77
263.19,-1.29,1.47,-1.29,1.46,-1.46,-1.42,-1.27,-2.75,-2.75,-2.76
265.82,-1.37,1.38,-1.36,1.38,-1.38,-1.37,-1.23,-2.75,-2.74,-2.75
268.48,-1.44,1.29,-1.43,1.29,-1.29,-1.32,-1.20,-2.73,-2.73,-2.73
271.16,-1.50,1.21,-1.51,1.21,-1.21,-1.26,-1.16,-2.70,-2.71,-2.71
273.87,-1.59,1.11,-1.58,1.12,-1.12,-1.20,-1.12,-2.70,-2.70,-2.70
276.61,-1.67,1.00,-1.66,1.02,-1.02,-1.14,-1.07,-2.69,-2.68,-2.67
279.38,-1.74,0.93,-1.74,0.93,-0.93,-1.08,-1.03,-2.66,-2.67,-2.67
282.17,-1.82,0.83,-1.82,0.83,-0.83,-1.01,-0.98,-2.65,-2.65,-2.65
284.99,-1.90,0.74,-1.91,0.72,-0.72,-0.94,-0.93,-2.62,-2.63,-2.64
287.84,-2.01,0.61,-2.00,0.62,-0.62,-0.87,-0.88,-2.62,-2.62,-2.62
290.72,-2.10,0.50,-2.10,0.50,-0.50,-0.79,-0.83,-2.60,-2.60,-2.60
293.63,-2.20,0.39,-2.19,0.39,-0.39,-0.71,-0.78,-2.58,-2.58,-2.59
296.57,-2.30,0.26,-2.30,0.26,-0.26,-0.63,-0.73,-2.56,-2.56,-2.56
299.53,-2.41,0.14,-2.41,0.13,-0.13,-0.54,-0.67,-2.54,-2.54,-2.55
302.53,-2.52,0.02,-2.52,0.00,-0.00,-0.44,-0.62,-2.52,-2.52,-2.54
305.55,-2.64,-0.13,-2.64,-0.14,0.14,-0.34,-0.56,-2.50,-2.50,-2.51
308.61,-2.76,-0.27,-2.76,-0.28,0.28,-0.23,-0.50,-2.47,-2.48,-2.49
311.69,-2.90,-0.44,-2.90,-0.44,0.44,-0.12,-0.45,-2.46,-2.46,-2.46
314.81,-3.02,-0.60,-3.03,-0.60,0.60,0.01,-0.39,-2.42,-2.44,-2.42
317.96,-3.16,-0.75,-3.17,-0.76,0.76,0.14,-0.33,-2.40,-2.41,-2.41
321.14,-3.31,-0.92,-3.32,-0.93,0.93,0.27,-0.27,-2.38,-2.39,-2.39
324.35,-3.47,-1.10,-3.47,-1.10,1.10,0.42,-0.22,-2.37,-2.37,-2.37
327.59,-3.64,-1.29,-3.62,-1.28,1.28,0.58,-0.16,-2.36,-2.34,-2.35
330.87,-3.77,-1.44,-3.78,-1.46,1.46,0.74,-0.10,-2.30,-2.32,-2.33
334.18,-3.94,-1.64,-3.95,-1.65,1.65,0.92,-0.04,-2.28,-2.30,-2.30
337.52,-4.14,-1.86,-4.12,-1.84,1.84,1.11,0.02,-2.29,-2.27,-2.28
340.90,-4.29,-2.03,-4.29,-2.04,2.04,1.30,0.08,-2.25,-2.25,-2.26
344.30,-4.46,-2.23,-4.46,-2.24,2.24,1.51,0.15,-2.22,-2.23,-2.23
347.75,-4.62,-2.41,-4.64,-2.43,2.43,1.74,0.21,-2.18,-2.20,-2.21
351.23,-4.81,-2.63,-4.81,-2.63,2.63,1.97,0.27,-2.17,-2.18,-2.18
354.74,-4.96,-2.81,-4.99,-2.83,2.83,2.21,0.33,-2.12,-2.15,-2.15
358.28,-5.15,-3.01,-5.16,-3.03,3.03,2.47,0.39,-2.12,-2.13,-2.14
361.87,-5.32,-3.21,-5.33,-3.22,3.22,2.73,0.45,-2.09,-2.10,-2.11
365.49,-5.51,-3.43,-5.49,-3.41,3.41,3.00,0.52,-2.09,-2.08,-2.08
369.14,-5.66,-3.59,-5.65,-3.60,3.60,3.27,0.58,-2.06,-2.06,-2.07
372.83,-5.80,-3.76,-5.80,-3.77,3.77,3.55,0.64,-2.03,-2.03,-2.04
376.56,-5.95,-3.93,-5.94,-3.93,3.93,3.82,0.71,-2.02,-2.01,-2.02
380.33,-6.09,-4.10,-6.07,-4.08,4.08,4.08,0.77,-2.00,-1.99,-1.99
384.13,-6.20,-4.22,-6.19,-4.22,4.22,4.33,0.83,-1.98,-1.97,-1.98
387.97,-6.30,-4.34,-6.29,-4.34,4.34,4.54,0.90,-1.96,-1.96,-1.96
391.85,-6.38,-4.43,-6.38,-4.43,4.43,4.73,0.96,-1.94,-1.94,-1.95
395.77,-6.44,-4.52,-6.44,-4.51,4.51,4.88,1.02,-1.93,-1.93,-1.92
399.73,-6.49,-4.58,-6.48,-4.56,4.56,4.97,1.08,-1.92,-1.92,-1.91
403.72,-6.53,-4.62,-6.50,-4.59,4.59,5.02,1.15,-1.93,-1.91,-1.91
407.76,-6.53,-4.63,-6.50,-4.60,4.60,5.01,1.21,-1.93,-1.90,-1.90
411.84,-6.51,-4.62,-6.48,-4.58,4.58,4.95,1.27,-1.93,-1.90,-1.89
415.96,-6.46,-4.56,-6.43,-4.53,4.53,4.83,1.33,-1.92,-1.89,-1.90
420.12,-6.38,-4.48,-6.35,-4.46,4.46,4.67,1.39,-1.92,-1.89,-1.90
424.32,-6.28,-4.38,-6.26,-4.36,4.36,4.48,1.44,-1.91,-1.90,-1.90
428.56,-6.17,-4.27,-6.14,-4.25,4.25,4.25,1.50,-1.92,-1.90,-1.90
432.85,-6.02,-4.11,-6.00,-4.10,4.10,4.00,1.55,-1.91,-1.90,-1.91
437.18,-5.85,-3.94,-5.84,-3.94,3.94,3.74,1.61,-1.91,-1.90,-1.91
441.55,-5.69,-3.78,-5.66,-3.76,3.76,3.47,1.66,-1.93,-1.91,-1.91
445.96,-5.49,-3.57,-5.47,-3.56,3.56,3.19,1.70,-1.93,-1.91,-1.92
450.42,-5.26,-3.34,-5.26,-3.35,3.35,2.92,1.74,-1.91,-1.91,-1.92
454.93,-5.05,-3.13,-5.05,-3.13,3.13,2.66,1.79,-1.92,-1.92,-1.92
459.48,-4.80,-2.87,-4.82,-2.90,2.90,2.40,1.82,-1.89,-1.92,-1.93
464.07,-4.58,-2.66,-4.59,-2.67,2.67,2.15,1.85,-1.91,-1.92,-1.92
468.71,-4.37,-2.45,-4.36,-2.44,2.44,1.91,1.88,-1.93,-1.92,-1.92
