frequency,raw,error,smoothed,error_smoothed,equalization,parametric_eq,fixed_band_eq,equalized_raw,equalized_smoothed,target
20.00,-14.78,-15.95,-14.70,-15.90,15.90,15.17,6.06,1.12,1.20,1.17
20.20,-14.65,-15.87,-14.61,-15.85,15.85,15.23,6.20,1.20,1.24,1.22
20.40,-14.52,-15.79,-14.52,-15.79,15.79,15.28,6.35,1.27,1.27,1.27
20.61,-14.39,-15.69,-14.42,-15.73,15.73,15.33,6.51,1.34,1.31,1.30
20.81,-14.26,-15.61,-14.33,-15.67,15.67,15.36,6.66,1.41,1.34,1.35
21.02,-14.13,-15.52,-14.23,-15.60,15.60,15.39,6.82,1.47,1.37,1.39
21.23,-14.07,-15.48,-14.14,-15.53,15.53,15.40,6.99,1.46,1.39,1.41
21.44,-14.01,-15.44,-14.04,-15.45,15.45,15.41,7.16,1.44,1.41,1.43
21.66,-13.95,-15.40,-13.94,-15.37,15.37,15.41,7.33,1.42,1.44,1.45
21.87,-13.89,-15.35,-13.84,-15.29,15.29,15.40,7.51,1.40,1.45,1.46
22.09,-13.81,-15.29,-13.74,-15.21,15.21,15.38,7.70,1.40,1.47,1.48
22.31,-13.69,-15.18,-13.64,-15.12,15.12,15.35,7.89,1.43,1.48,1.49
22.54,-13.56,-15.05,-13.54,-15.03,15.03,15.31,8.08,1.47,1.49,1.49
22.76,-13.44,-14.93,-13.44,-14.94,14.94,15.27,8.28,1.50,1.49,1.49
22.99,-13.32,-14.80,-13.34,-14.84,14.84,15.21,8.48,1.52,1.49,1.48
23.22,-13.21,-14.69,-13.24,-14.73,14.73,15.15,8.69,1.52,1.49,1.48
23.45,-13.11,-14.59,-13.13,-14.62,14.62,15.09,8.91,1.51,1.49,1.48
23.69,-13.01,-14.50,-13.01,-14.51,14.51,15.01,9.13,1.50,1.50,1.49
23.92,-12.91,-14.40,-12.89,-14.39,14.39,14.94,9.36,1.48,1.50,1.49
24.16,-12.80,-14.29,-12.78,-14.27,14.27,14.85,9.59,1.47,1.49,1.49
24.40,-12.68,-14.18,-12.66,-14.16,14.16,14.76,9.83,1.48,1.49,1.50
24.65,-12.57,-14.06,-12.56,-14.05,14.05,14.67,10.07,1.48,1.49,1.49
24.89,-12.45,-13.94,-12.47,-13.96,13.96,14.57,10.32,1.51,1.49,1.49
25.14,-12.34,-13.83,-12.37,-13.87,13.87,14.47,10.58,1.53,1.49,1.49
25.39,-12.24,-13.74,-12.27,-13.77,13.77,14.36,10.84,1.53,1.50,1.50
25.65,-12.13,-13.63,-12.17,-13.67,13.67,14.25,11.11,1.54,1.50,1.50
25.91,-12.03,-13.52,-12.07,-13.57,13.57,14.14,11.38,1.53,1.50,1.49
26.16,-11.95,-13.44,-11.97,-13.47,13.47,14.03,11.65,1.52,1.49,1.49
26.43,-11.90,-13.39,-11.88,-13.37,13.37,13.92,11.93,1.47,1.49,1.49
26.69,-11.84,-13.33,-11.79,-13.28,13.28,13.80,12.22,1.44,1.49,1.49
26.96,-11.79,-13.28,-11.70,-13.19,13.19,13.69,12.50,1.39,1.49,1.49
27.23,-11.66,-13.15,-11.61,-13.09,13.09,13.57,12.79,1.43,1.49,1.49
27.50,-11.51,-13.00,-11.51,-13.00,13.00,13.45,13.07,1.49,1.49,1.49
27.77,-11.36,-12.84,-11.42,-12.90,12.90,13.33,13.36,1.54,1.48,1.48
28.05,-11.23,-12.71,-11.32,-12.81,12.81,13.22,13.63,1.57,1.48,1.48
28.33,-11.18,-12.65,-11.22,-12.71,12.71,13.10,13.91,1.53,1.48,1.47
28.62,-11.13,-12.60,-11.13,-12.61,12.61,12.98,14.17,1.47,1.48,1.47
28.90,-11.09,-12.57,-11.02,-12.50,12.50,12.87,14.42,1.41,1.48,1.48
29.19,-10.98,-12.45,-10.92,-12.40,12.40,12.75,14.66,1.42,1.48,1.47
29.48,-10.85,-12.33,-10.81,-12.29,12.29,12.63,14.88,1.44,1.48,1.48
29.78,-10.71,-12.18,-10.71,-12.19,12.19,12.52,15.07,1.48,1.47,1.47
30.08,-10.59,-12.07,-10.62,-12.09,12.09,12.41,15.24,1.50,1.47,1.48
30.38,-10.51,-11.98,-10.53,-12.00,12.00,12.30,15.37,1.49,1.47,1.47
30.68,-10.43,-11.90,-10.45,-11.92,11.92,12.19,15.48,1.49,1.47,1.47
30.99,-10.35,-11.82,-10.37,-11.84,11.84,12.08,15.55,1.49,1.47,1.47
31.30,-10.26,-11.72,-10.29,-11.75,11.75,11.97,15.58,1.49,1.47,1.46
31.61,-10.17,-11.63,-10.20,-11.67,11.67,11.87,15.58,1.50,1.46,1.46
31.93,-10.08,-11.54,-10.12,-11.58,11.58,11.76,15.54,1.50,1.46,1.46
32.24,-10.02,-11.47,-10.05,-11.50,11.50,11.66,15.46,1.48,1.46,1.45
32.57,-9.97,-11.42,-9.97,-11.42,11.42,11.56,15.35,1.45,1.45,1.45
32.89,-9.93,-11.38,-9.90,-11.35,11.35,11.46,15.22,1.42,1.45,1.45
33.22,-9.86,-11.30,-9.82,-11.26,11.26,11.37,15.05,1.40,1.44,1.44
33.55,-9.79,-11.23,-9.74,-11.18,11.18,11.27,14.87,1.39,1.44,1.44
33.89,-9.71,-11.14,-9.65,-11.09,11.09,11.18,14.66,1.38,1.43,1.43
34.23,-9.61,-11.04,-9.57,-11.00,11.00,11.09,14.45,1.38,1.43,1.43
34.57,-9.50,-10.92,-9.48,-10.90,10.90,11.00,14.22,1.40,1.42,1.42
34.92,-9.39,-10.81,-9.39,-10.81,10.81,10.91,13.98,1.41,1.42,1.42
35.27,-9.28,-10.69,-9.30,-10.71,10.71,10.82,13.73,1.43,1.42,1.41
35.62,-9.17,-10.58,-9.21,-10.62,10.62,10.74,13.48,1.45,1.41,1.41
35.97,-9.07,-10.48,-9.12,-10.53,10.53,10.66,13.23,1.46,1.41,1.41
36.33,-8.99,-10.40,-9.03,-10.44,10.44,10.58,12.98,1.45,1.41,1.41
36.70,-8.91,-10.31,-8.95,-10.36,10.36,10.50,12.74,1.45,1.41,1.40
37.06,-8.84,-10.24,-8.87,-10.28,10.28,10.42,12.49,1.44,1.41,1.40
37.43,-8.77,-10.18,-8.78,-10.19,10.19,10.35,12.25,1.42,1.41,1.41
37.81,-8.70,-10.11,-8.71,-10.12,10.12,10.28,12.02,1.42,1.41,1.41
38.19,-8.65,-10.05,-8.63,-10.04,10.04,10.21,11.78,1.39,1.41,1.40
38.57,-8.60,-10.01,-8.56,-9.97,9.97,10.14,11.56,1.37,1.41,1.41
38.95,-8.56,-9.98,-8.49,-9.90,9.90,10.07,11.34,1.34,1.41,1.42
39.34,-8.46,-9.87,-8.42,-9.83,9.83,10.00,11.13,1.37,1.41,1.41
39.74,-8.36,-9.77,-8.35,-9.76,9.76,9.94,10.92,1.40,1.41,1.41
40.14,-8.26,-9.67,-8.27,-9.68,9.68,9.87,10.72,1.42,1.41,1.41
40.54,-8.17,-9.58,-8.19,-9.60,9.60,9.81,10.53,1.43,1.41,1.41
40.94,-8.07,-9.47,-8.12,-9.52,9.52,9.75,10.34,1.45,1.41,1.40
41.35,-8.02,-9.42,-8.04,-9.44,9.44,9.69,10.16,1.42,1.40,1.40
41.76,-7.98,-9.37,-7.97,-9.36,9.36,9.63,9.99,1.38,1.39,1.39
42.18,-7.91,-9.30,-7.89,-9.28,9.28,9.57,9.82,1.37,1.38,1.39
42.60,-7.83,-9.21,-7.82,-9.19,9.19,9.52,9.66,1.36,1.38,1.38
43.03,-7.75,-9.12,-7.75,-9.11,9.11,9.46,9.51,1.36,1.36,1.37
43.46,-7.66,-9.02,-7.68,-9.03,9.03,9.40,9.36,1.37,1.35,1.36
43.90,-7.57,-8.91,-7.62,-8.96,8.96,9.35,9.22,1.39,1.34,1.34
44.33,-7.54,-8.86,-7.56,-8.88,8.88,9.29,9.09,1.34,1.33,1.32
44.78,-7.52,-8.82,-7.49,-8.80,8.80,9.24,8.96,1.28,1.31,1.30
45.23,-7.46,-8.75,-7.42,-8.73,8.73,9.18,8.84,1.26,1.30,1.29
45.68,-7.37,-8.65,-7.36,-8.65,8.65,9.13,8.72,1.28,1.29,1.28
46.13,-7.29,-8.55,-7.30,-8.57,8.57,9.07,8.61,1.28,1.27,1.26
46.60,-7.24,-8.50,-7.23,-8.49,8.49,9.02,8.51,1.25,1.26,1.26
47.06,-7.19,-8.43,-7.17,-8.41,8.41,8.96,8.41,1.22,1.24,1.24
47.53,-7.12,-8.35,-7.11,-8.34,8.34,8.91,8.31,1.22,1.23,1.23
48.01,-7.05,-8.28,-7.05,-8.27,8.27,8.85,8.22,1.22,1.21,1.23
48.49,-6.95,-8.16,-6.99,-8.19,8.19,8.79,8.14,1.24,1.20,1.21
48.97,-6.86,-8.05,-6.93,-8.12,8.12,8.74,8.06,1.26,1.19,1.19
49.46,-6.85,-8.02,-6.87,-8.04,8.04,8.68,7.98,1.19,1.17,1.17
49.96,-6.85,-8.00,-6.80,-7.96,7.96,8.62,7.91,1.11,1.16,1.15
50.46,-6.76,-7.90,-6.74,-7.89,7.89,8.56,7.84,1.12,1.15,1.14
50.96,-6.66,-7.79,-6.67,-7.81,7.81,8.49,7.78,1.15,1.13,1.13
51.47,-6.64,-7.75,-6.61,-7.73,7.73,8.43,7.71,1.09,1.12,1.11
51.99,-6.63,-7.73,-6.55,-7.66,7.66,8.36,7.65,1.03,1.11,1.10
52.51,-6.51,-7.60,-6.49,-7.59,7.59,8.30,7.60,1.08,1.10,1.09
53.03,-6.40,-7.49,-6.44,-7.53,7.53,8.23,7.54,1.13,1.08,1.09
53.56,-6.37,-7.44,-6.39,-7.46,7.46,8.16,7.49,1.09,1.07,1.07
54.10,-6.33,-7.39,-6.34,-7.40,7.40,8.09,7.44,1.07,1.06,1.06
54.64,-6.22,-7.26,-6.28,-7.33,7.33,8.01,7.39,1.11,1.05,1.04
55.18,-6.15,-7.19,-6.22,-7.26,7.26,7.94,7.34,1.11,1.04,1.04
55.74,-6.15,-7.17,-6.17,-7.19,7.19,7.86,7.29,1.04,1.03,1.02
56.29,-6.15,-7.16,-6.12,-7.13,7.13,7.78,7.25,0.98,1.02,1.01
56.86,-6.15,-7.15,-6.07,-7.07,7.07,7.70,7.20,0.92,1.00,1.00
57.42,-6.11,-7.08,-6.03,-7.01,7.01,7.62,7.15,0.90,0.98,0.97
58.00,-6.05,-7.01,-5.99,-6.95,6.95,7.53,7.09,0.90,0.96,0.96
58.58,-5.94,-6.89,-5.96,-6.90,6.90,7.45,7.04,0.96,0.94,0.95
59.16,-5.86,-6.79,-5.92,-6.84,6.84,7.36,6.99,0.98,0.92,0.93
59.76,-5.84,-6.75,-5.90,-6.79,6.79,7.27,6.93,0.94,0.89,0.91
60.35,-5.84,-6.71,-5.87,-6.73,6.73,7.18,6.87,0.89,0.86,0.87
60.96,-5.84,-6.67,-5.85,-6.68,6.68,7.09,6.80,0.84,0.83,0.83
61.57,-5.84,-6.63,-5.85,-6.64,6.64,7.00,6.74,0.80,0.79,0.79
62.18,-5.84,-6.59,-5.84,-6.60,6.60,6.90,6.67,0.76,0.75,0.75
62.80,-5.84,-6.54,-5.84,-6.55,6.55,6.81,6.60,0.71,0.71,0.70
63.43,-5.84,-6.50,-5.85,-6.52,6.52,6.72,6.52,0.68,0.67,0.66
64.07,-5.84,-6.45,-5.87,-6.50,6.50,6.62,6.44,0.66,0.62,0.61
64.71,-5.85,-6.42,-5.89,-6.47,6.47,6.52,6.36,0.62,0.58,0.57
65.35,-5.89,-6.42,-5.91,-6.45,6.45,6.43,6.27,0.55,0.53,0.53
66.01,-5.96,-6.44,-5.93,-6.41,6.41,6.33,6.18,0.45,0.48,0.48
66.67,-5.95,-6.38,-5.94,-6.38,6.38,6.23,6.09,0.43,0.44,0.43
67.33,-5.99,-6.37,-5.95,-6.34,6.34,6.13,5.99,0.34,0.39,0.38
68.01,-6.09,-6.43,-5.95,-6.29,6.29,6.03,5.89,0.20,0.34,0.34
68.69,-5.95,-6.24,-5.95,-6.24,6.24,5.94,5.79,0.29,0.29,0.29
69.37,-5.93,-6.17,-5.95,-6.19,6.19,5.84,5.69,0.26,0.24,0.24
70.07,-6.00,-6.19,-5.95,-6.13,6.13,5.74,5.59,0.13,0.19,0.19
70.77,-5.88,-6.02,-5.93,-6.06,6.06,5.64,5.48,0.18,0.13,0.14
71.48,-5.84,-5.93,-5.91,-5.98,5.98,5.55,5.38,0.14,0.08,0.09
72.19,-5.84,-5.86,-5.88,-5.90,5.90,5.45,5.27,0.06,0.02,0.02
72.91,-5.84,-5.80,-5.85,-5.81,5.81,5.35,5.16,-0.03,-0.03,-0.04
73.64,-5.79,-5.70,-5.81,-5.72,5.72,5.26,5.06,-0.07,-0.09,-0.09
74.38,-5.75,-5.60,-5.76,-5.62,5.62,5.16,4.95,-0.13,-0.15,-0.15
75.12,-5.74,-5.53,-5.71,-5.51,5.51,5.07,4.84,-0.23,-0.20,-0.21
75.87,-5.79,-5.52,-5.65,-5.40,5.40,4.97,4.74,-0.39,-0.26,-0.27
76.63,-5.62,-5.30,-5.60,-5.29,5.29,4.88,4.63,-0.33,-0.31,-0.32
77.40,-5.49,-5.12,-5.54,-5.17,5.17,4.79,4.53,-0.32,-0.37,-0.37
78.17,-5.46,-5.03,-5.47,-5.05,5.05,4.70,4.43,-0.41,-0.42,-0.43
78.95,-5.44,-4.97,-5.41,-4.94,4.94,4.61,4.33,-0.50,-0.47,-0.47
79.74,-5.41,-4.89,-5.33,-4.81,4.81,4.52,4.23,-0.60,-0.52,-0.52
80.54,-5.25,-4.68,-5.25,-4.68,4.68,4.43,4.13,-0.57,-0.57,-0.57
81.35,-5.10,-4.48,-5.18,-4.56,4.56,4.34,4.04,-0.54,-0.62,-0.62
82.16,-5.05,-4.38,-5.11,-4.44,4.44,4.26,3.94,-0.61,-0.66,-0.67
82.98,-5.02,-4.31,-5.04,-4.33,4.33,4.17,3.85,-0.69,-0.71,-0.71
83.81,-4.99,-4.23,-4.98,-4.22,4.22,4.09,3.76,-0.77,-0.76,-0.76
84.65,-4.91,-4.10,-4.92,-4.12,4.12,4.01,3.68,-0.79,-0.81,-0.81
85.50,-4.85,-4.00,-4.89,-4.03,4.03,3.92,3.59,-0.82,-0.86,-0.85
86.35,-4.80,-3.90,-4.84,-3.94,3.94,3.84,3.51,-0.86,-0.91,-0.90
87.22,-4.74,-3.79,-4.79,-3.84,3.84,3.76,3.43,-0.90,-0.95,-0.95
88.09,-4.72,-3.72,-4.75,-3.74,3.74,3.69,3.35,-0.98,-1.01,-1.00
88.97,-4.77,-3.71,-4.72,-3.66,3.66,3.61,3.27,-1.11,-1.06,-1.06
89.86,-4.72,-3.61,-4.68,-3.58,3.58,3.53,3.20,-1.14,-1.11,-1.11
90.76,-4.72,-3.56,-4.65,-3.49,3.49,3.46,3.12,-1.23,-1.16,-1.16
91.66,-4.66,-3.45,-4.61,-3.40,3.40,3.38,3.05,-1.26,-1.21,-1.21
92.58,-4.63,-3.36,-4.58,-3.32,3.32,3.31,2.99,-1.31,-1.26,-1.27
93.51,-4.58,-3.26,-4.54,-3.24,3.24,3.24,2.92,-1.35,-1.31,-1.32
94.44,-4.47,-3.11,-4.51,-3.15,3.15,3.17,2.85,-1.32,-1.36,-1.36
95.39,-4.39,-2.98,-4.48,-3.07,3.07,3.10,2.79,-1.32,-1.41,-1.41
96.34,-4.41,-2.95,-4.45,-3.00,3.00,3.03,2.73,-1.41,-1.46,-1.46
97.30,-4.44,-2.93,-4.43,-2.92,2.92,2.96,2.67,-1.52,-1.51,-1.51
98.28,-4.41,-2.85,-4.40,-2.84,2.84,2.89,2.62,-1.57,-1.55,-1.56
99.26,-4.31,-2.71,-4.38,-2.77,2.77,2.83,2.56,-1.54,-1.60,-1.60
100.25,-4.36,-2.71,-4.36,-2.71,2.71,2.76,2.51,-1.65,-1.65,-1.65
101.25,-4.43,-2.73,-4.35,-2.66,2.66,2.70,2.45,-1.77,-1.70,-1.70
102.27,-4.36,-2.61,-4.36,-2.61,2.61,2.63,2.40,-1.75,-1.75,-1.75
103.29,-4.34,-2.54,-4.37,-2.58,2.58,2.57,2.35,-1.77,-1.80,-1.80
104.32,-4.34,-2.50,-4.39,-2.54,2.54,2.51,2.30,-1.80,-1.84,-1.84
105.37,-4.37,-2.48,-4.41,-2.51,2.51,2.45,2.26,-1.86,-1.90,-1.89
106.42,-4.39,-2.45,-4.42,-2.48,2.48,2.39,2.21,-1.91,-1.95,-1.94
107.48,-4.41,-2.41,-4.43,-2.43,2.43,2.33,2.17,-1.98,-2.00,-2.00
108.56,-4.44,-2.39,-4.44,-2.38,2.38,2.27,2.12,-2.06,-2.05,-2.05
109.64,-4.46,-2.36,-4.43,-2.33,2.33,2.21,2.08,-2.13,-2.10,-2.10
110.74,-4.48,-2.32,-4.43,-2.28,2.28,2.16,2.04,-2.21,-2.16,-2.16
111.85,-4.50,-2.30,-4.42,-2.22,2.22,2.10,2.00,-2.28,-2.21,-2.20
112.97,-4.51,-2.25,-4.41,-2.15,2.15,2.04,1.96,-2.36,-2.26,-2.26
114.10,-4.43,-2.12,-4.40,-2.09,2.09,1.99,1.92,-2.34,-2.30,-2.31
115.24,-4.39,-2.03,-4.38,-2.02,2.02,1.93,1.88,-2.37,-2.35,-2.36
116.39,-4.34,-1.93,-4.35,-1.95,1.95,1.88,1.84,-2.39,-2.40,-2.41
117.55,-4.29,-1.84,-4.31,-1.87,1.87,1.83,1.80,-2.42,-2.44,-2.45
118.73,-4.19,-1.70,-4.28,-1.80,1.80,1.77,1.76,-2.39,-2.48,-2.49
119.92,-4.14,-1.62,-4.24,-1.73,1.73,1.72,1.72,-2.42,-2.52,-2.52
121.12,-4.19,-1.63,-4.21,-1.66,1.66,1.67,1.68,-2.53,-2.55,-2.56
122.33,-4.22,-1.63,-4.18,-1.59,1.59,1.62,1.64,-2.63,-2.59,-2.59
123.55,-4.20,-1.58,-4.14,-1.52,1.52,1.56,1.60,-2.68,-2.62,-2.62
124.79,-4.08,-1.43,-4.11,-1.46,1.46,1.51,1.57,-2.62,-2.65,-2.65
126.03,-4.06,-1.38,-4.08,-1.40,1.40,1.46,1.53,-2.66,-2.68,-2.68
127.29,-4.05,-1.35,-4.06,-1.34,1.34,1.41,1.49,-2.71,-2.71,-2.70
128.57,-4.04,-1.30,-4.04,-1.30,1.30,1.36,1.45,-2.74,-2.74,-2.74
129.85,-4.04,-1.27,-4.02,-1.25,1.25,1.31,1.41,-2.79,-2.77,-2.77
131.15,-4.03,-1.23,-4.01,-1.21,1.21,1.26,1.37,-2.82,-2.80,-2.80
132.46,-4.03,-1.20,-3.99,-1.17,1.17,1.21,1.33,-2.86,-2.83,-2.83
133.79,-3.98,-1.12,-3.97,-1.12,1.12,1.16,1.29,-2.86,-2.85,-2.86
135.12,-3.86,-0.97,-3.95,-1.07,1.07,1.12,1.25,-2.79,-2.88,-2.89
136.48,-3.90,-0.99,-3.93,-1.02,1.02,1.07,1.21,-2.88,-2.91,-2.91
137.84,-3.91,-0.96,-3.92,-0.98,0.98,1.02,1.17,-2.93,-2.94,-2.95
139.22,-3.91,-0.93,-3.91,-0.94,0.94,0.97,1.13,-2.97,-2.97,-2.98
140.61,-3.92,-0.91,-3.89,-0.89,0.89,0.92,1.09,-3.03,-3.00,-3.01
142.02,-3.96,-0.93,-3.87,-0.84,0.84,0.87,1.05,-3.12,-3.03,-3.03
143.44,-3.89,-0.83,-3.85,-0.79,0.79,0.82,1.01,-3.10,-3.06,-3.06
144.87,-3.82,-0.72,-3.84,-0.74,0.74,0.77,0.97,-3.08,-3.10,-3.10
146.32,-3.81,-0.67,-3.84,-0.69,0.69,0.72,0.93,-3.12,-3.15,-3.14
147.78,-3.81,-0.64,-3.83,-0.64,0.64,0.67,0.89,-3.17,-3.19,-3.17
149.26,-3.81,-0.59,-3.84,-0.59,0.59,0.62,0.85,-3.22,-3.25,-3.22
150.75,-3.81,-0.53,-3.84,-0.53,0.53,0.57,0.80,-3.28,-3.31,-3.28
152.26,-3.81,-0.46,-3.84,-0.47,0.47,0.52,0.76,-3.34,-3.37,-3.35
153.78,-3.81,-0.39,-3.85,-0.42,0.42,0.47,0.72,-3.40,-3.43,-3.42
155.32,-3.81,-0.32,-3.86,-0.36,0.36,0.41,0.68,-3.45,-3.50,-3.49
156.88,-3.87,-0.30,-3.88,-0.30,0.30,0.36,0.64,-3.57,-3.57,-3.57
158.44,-3.94,-0.29,-3.89,-0.24,0.24,0.31,0.60,-3.70,-3.64,-3.65
160.03,-3.93,-0.20,-3.90,-0.19,0.19,0.26,0.56,-3.75,-3.71,-3.73
161.63,-3.91,-0.11,-3.90,-0.12,0.12,0.20,0.52,-3.79,-3.78,-3.80
163.24,-3.91,-0.05,-3.90,-0.06,0.06,0.15,0.48,-3.85,-3.84,-3.86
164.88,-3.91,-0.00,-3.89,0.00,-0.00,0.10,0.44,-3.91,-3.89,-3.91
166.53,-3.94,0.02,-3.89,0.05,-0.05,0.04,0.39,-3.99,-3.94,-3.96
168.19,-3.97,0.03,-3.88,0.10,-0.10,-0.01,0.35,-4.07,-3.98,-4.00
169.87,-3.91,0.13,-3.87,0.14,-0.14,-0.06,0.31,-4.05,-4.01,-4.04
171.57,-3.85,0.21,-3.86,0.18,-0.18,-0.12,0.27,-4.03,-4.04,-4.06
173.29,-3.74,0.33,-3.83,0.23,-0.23,-0.17,0.23,-3.97,-4.06,-4.07
175.02,-3.69,0.39,-3.81,0.27,-0.27,-0.22,0.19,-3.96,-4.07,-4.08
176.77,-3.73,0.36,-3.78,0.30,-0.30,-0.28,0.15,-4.03,-4.08,-4.09
178.54,-3.75,0.35,-3.75,0.34,-0.34,-0.33,0.11,-4.09,-4.09,-4.10
180.32,-3.75,0.34,-3.73,0.37,-0.37,-0.38,0.07,-4.12,-4.10,-4.09
182.13,-3.78,0.30,-3.70,0.40,-0.40,-0.43,0.02,-4.18,-4.10,-4.08
183.95,-3.77,0.32,-3.67,0.43,-0.43,-0.48,-0.02,-4.20,-4.11,-4.09
185.79,-3.64,0.45,-3.65,0.47,-0.47,-0.53,-0.06,-4.11,-4.11,-4.09
187.65,-3.61,0.50,-3.63,0.49,-0.49,-0.58,-0.10,-4.10,-4.12,-4.11
189.52,-3.59,0.53,-3.62,0.51,-0.51,-0.62,-0.14,-4.10,-4.13,-4.12
191.42,-3.58,0.56,-3.61,0.54,-0.54,-0.67,-0.18,-4.12,-4.14,-4.14
193.33,-3.56,0.60,-3.59,0.56,-0.56,-0.71,-0.22,-4.13,-4.16,-4.16
195.27,-3.55,0.63,-3.57,0.60,-0.60,-0.74,-0.26,-4.15,-4.18,-4.18
197.22,-3.54,0.66,-3.55,0.64,-0.64,-0.78,-0.31,-4.19,-4.19,-4.20
199.19,-3.52,0.70,-3.53,0.69,-0.69,-0.81,-0.35,-4.21,-4.21,-4.22
201.18,-3.52,0.72,-3.51,0.73,-0.73,-0.84,-0.39,-4.25,-4.23,-4.24
203.19,-3.51,0.75,-3.49,0.76,-0.76,-0.87,-0.43,-4.27,-4.26,-4.26
205.23,-3.53,0.75,-3.48,0.79,-0.79,-0.89,-0.47,-4.32,-4.28,-4.28
207.28,-3.55,0.74,-3.48,0.82,-0.82,-0.91,-0.51,-4.37,-4.30,-4.29
209.35,-3.46,0.85,-3.47,0.85,-0.85,-0.92,-0.55,-4.31,-4.32,-4.31
211.44,-3.41,0.93,-3.46,0.87,-0.87,-0.94,-0.59,-4.28,-4.33,-4.34
213.56,-3.42,0.93,-3.45,0.89,-0.89,-0.95,-0.62,-4.31,-4.35,-4.35
215.69,-3.42,0.94,-3.45,0.91,-0.91,-0.95,-0.66,-4.34,-4.36,-4.36
217.85,-3.42,0.95,-3.44,0.93,-0.93,-0.95,-0.70,-4.35,-4.37,-4.37
220.03,-3.43,0.95,-3.44,0.94,-0.94,-0.95,-0.73,-4.37,-4.38,-4.38
222.23,-3.43,0.98,-3.44,0.95,-0.95,-0.95,-0.76,-4.38,-4.39,-4.41
224.45,-3.43,0.97,-3.43,0.96,-0.96,-0.94,-0.80,-4.39,-4.39,-4.40
226.70,-3.43,0.97,-3.42,0.97,-0.97,-0.94,-0.83,-4.40,-4.39,-4.40
228.96,-3.43,0.96,-3.41,0.97,-0.97,-0.93,-0.86,-4.40,-4.39,-4.39
231.25,-3.42,0.96,-3.40,0.98,-0.98,-0.91,-0.88,-4.40,-4.38,-4.38
233.57,-3.41,0.96,-3.39,0.98,-0.98,-0.90,-0.91,-4.39,-4.37,-4.37
235.90,-3.40,0.96,-3.37,0.98,-0.98,-0.89,-0.93,-4.38,-4.35,-4.36
238.26,-3.40,0.95,-3.34,1.00,-1.00,-0.87,-0.95,-4.40,-4.33,-4.35
240.64,-3.38,0.94,-3.31,1.00,-1.00,-0.86,-0.97,-4.38,-4.32,-4.32
243.05,-3.28,1.01,-3.29,1.01,-1.01,-0.84,-0.99,-4.29,-4.29,-4.29
245.48,-3.23,1.04,-3.26,1.01,-1.01,-0.82,-1.00,-4.24,-4.27,-4.27
247.93,-3.20,1.04,-3.24,1.01,-1.01,-0.81,-1.02,-4.21,-4.25,-4.24
250.41,-3.18,1.04,-3.22,1.00,-1.00,-0.79,-1.03,-4.18,-4.22,-4.22
252.92,-3.17,1.02,-3.21,0.99,-0.99,-0.77,-1.03,-4.16,-4.20,-4.19
255.45,-3.15,1.02,-3.20,0.98,-0.98,-0.75,-1.04,-4.13,-4.18,-4.17
258.00,-3.14,1.01,-3.19,0.96,-0.96,-0.74,-1.04,-4.10,-4.15,-4.15
260.58,-3.14,0.99,-3.19,0.94,-0.94,-0.72,-1.04,-4.08,-4.13,-4.13
263.19,-3.19,0.91,-3.19,0.91,-0.91,-0.70,-1.04,-4.10,-4.10,-4.10
265.82,-3.24,0.84,-3.20,0.88,-0.88,-0.69,-1.04,-4.12,-4.08,-4.08
268.48,-3.25,0.81,-3.20,0.85,-0.85,-0.67,-1.03,-4.10,-4.05,-4.06
271.16,-3.25,0.78,-3.21,0.81,-0.81,-0.66,-1.02,-4.06,-4.03,-4.03
273.87,-3.25,0.76,-3.22,0.78,-0.78,-0.65,-1.01,-4.03,-4.00,-4.01
276.61,-3.25,0.73,-3.23,0.74,-0.74,-0.63,-1.00,-4.00,-3.98,-3.98
279.38,-3.25,0.70,-3.24,0.71,-0.71,-0.62,-0.99,-3.96,-3.95,-3.95
282.17,-3.25,0.68,-3.25,0.68,-0.68,-0.61,-0.97,-3.93,-3.92,-3.93
284.99,-3.25,0.64,-3.25,0.64,-0.64,-0.60,-0.96,-3.89,-3.89,-3.89
287.84,-3.24,0.63,-3.25,0.61,-0.61,-0.59,-0.94,-3.85,-3.86,-3.87
290.72,-3.23,0.61,-3.25,0.58,-0.58,-0.58,-0.93,-3.81,-3.83,-3.84
293.63,-3.21,0.60,-3.25,0.56,-0.56,-0.57,-0.91,-3.77,-3.81,-3.81
296.57,-3.20,0.58,-3.25,0.53,-0.53,-0.56,-0.89,-3.73,-3.78,-3.78
299.53,-3.27,0.48,-3.25,0.50,-0.50,-0.55,-0.87,-3.77,-3.75,-3.75
302.53,-3.28,0.45,-3.25,0.47,-0.47,-0.55,-0.85,-3.75,-3.72,-3.73
305.55,-3.27,0.42,-3.25,0.45,-0.45,-0.54,-0.83,-3.72,-3.70,-3.69
308.61,-3.26,0.41,-3.25,0.42,-0.42,-0.53,-0.81,-3.68,-3.67,-3.67
311.69,-3.25,0.39,-3.26,0.39,-0.39,-0.53,-0.79,-3.64,-3.65,-3.64
314.81,-3.25,0.37,-3.26,0.37,-0.37,-0.52,-0.77,-3.62,-3.63,-3.62
317.96,-3.25,0.35,-3.26,0.35,-0.35,-0.52,-0.75,-3.60,-3.60,-3.60
321.14,-3.24,0.35,-3.26,0.33,-0.33,-0.52,-0.73,-3.57,-3.59,-3.59
324.35,-3.25,0.32,-3.25,0.32,-0.32,-0.51,-0.71,-3.57,-3.57,-3.57
327.59,-3.25,0.31,-3.25,0.31,-0.31,-0.51,-0.69,-3.56,-3.55,-3.56
330.87,-3.25,0.30,-3.24,0.31,-0.31,-0.51,-0.67,-3.56,-3.54,-3.55
334.18,-3.25,0.28,-3.22,0.31,-0.31,-0.50,-0.65,-3.56,-3.53,-3.53
337.52,-3.25,0.27,-3.21,0.31,-0.31,-0.50,-0.63,-3.56,-3.52,-3.52
340.90,-3.22,0.29,-3.20,0.31,-0.31,-0.50,-0.61,-3.53,-3.51,-3.51
344.30,-3.16,0.34,-3.19,0.32,-0.32,-0.50,-0.59,-3.48,-3.50,-3.50
347.75,-3.15,0.35,-3.18,0.32,-0.32,-0.50,-0.58,-3.47,-3.50,-3.50
351.23,-3.15,0.34,-3.16,0.33,-0.33,-0.50,-0.56,-3.48,-3.49,-3.49
354.74,-3.15,0.35,-3.16,0.34,-0.34,-0.50,-0.54,-3.49,-3.49,-3.50
358.28,-3.15,0.34,-3.15,0.34,-0.34,-0.50,-0.53,-3.49,-3.49,-3.49
361.87,-3.14,0.35,-3.14,0.34,-0.34,-0.50,-0.51,-3.49,-3.49,-3.49
365.49,-3.13,0.35,-3.14,0.35,-0.35,-0.50,-0.49,-3.48,-3.48,-3.48
369.14,-3.13,0.36,-3.14,0.35,-0.35,-0.50,-0.48,-3.48,-3.49,-3.49
372.83,-3.12,0.37,-3.14,0.35,-0.35,-0.50,-0.47,-3.47,-3.49,-3.49
376.56,-3.11,0.39,-3.14,0.35,-0.35,-0.50,-0.45,-3.46,-3.49,-3.50
380.33,-3.13,0.36,-3.15,0.34,-0.34,-0.50,-0.44,-3.47,-3.49,-3.49
384.13,-3.18,0.31,-3.16,0.34,-0.34,-0.50,-0.42,-3.52,-3.50,-3.49
387.97,-3.19,0.31,-3.17,0.33,-0.33,-0.50,-0.41,-3.52,-3.50,-3.50
391.85,-3.19,0.32,-3.18,0.33,-0.33,-0.50,-0.40,-3.52,-3.50,-3.51
395.77,-3.19,0.31,-3.19,0.32,-0.32,-0.51,-0.39,-3.51,-3.51,-3.50
399.73,-3.19,0.32,-3.20,0.32,-0.32,-0.51,-0.38,-3.51,-3.52,-3.51
403.72,-3.19,0.32,-3.21,0.31,-0.31,-0.51,-0.37,-3.50,-3.52,-3.51
407.76,-3.19,0.34,-3.21,0.31,-0.31,-0.51,-0.36,-3.50,-3.53,-3.53
411.84,-3.20,0.33,-3.21,0.32,-0.32,-0.52,-0.35,-3.52,-3.53,-3.53
415.96,-3.20,0.33,-3.21,0.32,-0.32,-0.52,-0.34,-3.52,-3.53,-3.53
420.12,-3.20,0.33,-3.19,0.34,-0.34,-0.52,-0.33,-3.54,-3.53,-3.53
424.32,-3.19,0.34,-3.17,0.35,-0.35,-0.52,-0.33,-3.54,-3.52,-3.53
428.56,-3.18,0.34,-3.14,0.37,-0.37,-0.53,-0.32,-3.55,-3.51,-3.52
432.85,-3.17,0.34,-3.11,0.39,-0.39,-0.53,-0.31,-3.56,-3.49,-3.51
437.18,-3.12,0.38,-3.07,0.41,-0.41,-0.53,-0.31,-3.53,-3.47,-3.50
