frequency,raw,error,smoothed,error_smoothed,equalization,parametric_eq,fixed_band_eq,equalized_raw,equalized_smoothed,target
20.00,6.43,-0.57,6.42,-0.61,0.61,-0.13,0.06,7.04,7.03,7.00
20.20,6.45,-0.60,6.45,-0.62,0.62,-0.13,0.07,7.07,7.07,7.05
20.40,6.47,-0.63,6.47,-0.63,0.63,-0.13,0.07,7.10,7.10,7.10
20.61,6.49,-0.64,6.49,-0.64,0.64,-0.13,0.08,7.13,7.14,7.13
20.81,6.51,-0.67,6.52,-0.65,0.65,-0.14,0.08,7.16,7.17,7.18
21.02,6.53,-0.69,6.54,-0.66,0.66,-0.14,0.09,7.19,7.19,7.22
21.23,6.55,-0.69,6.56,-0.66,0.66,-0.14,0.09,7.21,7.22,7.24
21.44,6.57,-0.69,6.58,-0.66,0.66,-0.15,0.10,7.23,7.24,7.26
21.66,6.60,-0.68,6.60,-0.66,0.66,-0.15,0.10,7.26,7.26,7.28
21.87,6.62,-0.67,6.62,-0.66,0.66,-0.15,0.11,7.28,7.28,7.29
22.09,6.64,-0.67,6.64,-0.66,0.66,-0.15,0.11,7.30,7.29,7.31
22.31,6.66,-0.66,6.65,-0.65,0.65,-0.16,0.12,7.31,7.31,7.32
22.54,6.68,-0.64,6.67,-0.64,0.64,-0.16,0.13,7.32,7.31,7.32
22.76,6.71,-0.61,6.69,-0.63,0.63,-0.16,0.13,7.34,7.32,7.32
22.99,6.73,-0.58,6.70,-0.62,0.62,-0.17,0.14,7.35,7.32,7.31
23.22,6.73,-0.57,6.72,-0.60,0.60,-0.17,0.15,7.33,7.32,7.30
23.45,6.73,-0.57,6.73,-0.59,0.59,-0.17,0.15,7.32,7.32,7.30
23.69,6.73,-0.58,6.75,-0.57,0.57,-0.18,0.16,7.30,7.32,7.31
23.92,6.73,-0.58,6.77,-0.55,0.55,-0.18,0.17,7.28,7.32,7.31
24.16,6.75,-0.57,6.78,-0.54,0.54,-0.18,0.18,7.29,7.32,7.32
24.40,6.78,-0.55,6.80,-0.52,0.52,-0.19,0.18,7.30,7.32,7.33
24.65,6.81,-0.51,6.82,-0.50,0.50,-0.19,0.19,7.31,7.32,7.32
24.89,6.84,-0.48,6.84,-0.48,0.48,-0.20,0.20,7.32,7.32,7.32
25.14,6.86,-0.46,6.85,-0.47,0.47,-0.20,0.21,7.33,7.32,7.32
25.39,6.88,-0.45,6.87,-0.46,0.46,-0.20,0.22,7.34,7.32,7.33
25.65,6.90,-0.43,6.88,-0.44,0.44,-0.21,0.22,7.34,7.32,7.33
25.91,6.92,-0.39,6.89,-0.43,0.43,-0.21,0.23,7.35,7.32,7.31
26.16,6.93,-0.38,6.90,-0.41,0.41,-0.22,0.24,7.34,7.32,7.31
26.43,6.93,-0.38,6.92,-0.40,0.40,-0.22,0.25,7.33,7.32,7.31
26.69,6.93,-0.38,6.93,-0.39,0.39,-0.22,0.26,7.32,7.31,7.31
26.96,6.93,-0.39,6.94,-0.37,0.37,-0.23,0.26,7.30,7.31,7.32
27.23,6.93,-0.39,6.94,-0.37,0.37,-0.23,0.27,7.30,7.31,7.32
27.50,6.93,-0.39,6.95,-0.36,0.36,-0.24,0.28,7.29,7.31,7.32
27.77,6.93,-0.37,6.95,-0.35,0.35,-0.24,0.28,7.28,7.31,7.30
28.05,6.94,-0.36,6.96,-0.34,0.34,-0.25,0.29,7.28,7.30,7.30
28.33,6.96,-0.33,6.97,-0.33,0.33,-0.25,0.30,7.29,7.30,7.29
28.62,6.99,-0.30,6.98,-0.32,0.32,-0.26,0.30,7.30,7.30,7.29
28.90,7.02,-0.28,7.00,-0.30,0.30,-0.26,0.30,7.32,7.30,7.30
29.19,7.03,-0.26,7.01,-0.28,0.28,-0.27,0.31,7.31,7.30,7.29
29.48,7.03,-0.27,7.03,-0.26,0.26,-0.27,0.31,7.29,7.29,7.30
29.78,7.03,-0.26,7.05,-0.25,0.25,-0.28,0.31,7.28,7.29,7.29
30.08,7.04,-0.26,7.06,-0.23,0.23,-0.28,0.31,7.27,7.29,7.30
30.38,7.07,-0.22,7.08,-0.21,0.21,-0.29,0.31,7.28,7.29,7.29
30.68,7.10,-0.19,7.09,-0.20,0.20,-0.30,0.31,7.30,7.29,7.29
30.99,7.13,-0.15,7.10,-0.18,0.18,-0.30,0.31,7.31,7.28,7.28
31.30,7.13,-0.15,7.11,-0.17,0.17,-0.31,0.31,7.30,7.28,7.28
31.61,7.13,-0.15,7.11,-0.17,0.17,-0.31,0.31,7.30,7.28,7.28
31.93,7.13,-0.15,7.12,-0.16,0.16,-0.32,0.30,7.29,7.28,7.28
32.24,7.13,-0.13,7.12,-0.15,0.15,-0.33,0.30,7.28,7.27,7.26
32.57,7.13,-0.14,7.13,-0.13,0.13,-0.33,0.29,7.26,7.27,7.27
32.89,7.13,-0.14,7.14,-0.12,0.12,-0.34,0.28,7.25,7.26,7.27
33.22,7.13,-0.13,7.15,-0.11,0.11,-0.35,0.28,7.24,7.26,7.26
33.55,7.13,-0.12,7.15,-0.10,0.10,-0.35,0.27,7.23,7.25,7.25
33.89,7.13,-0.11,7.16,-0.09,0.09,-0.36,0.26,7.22,7.25,7.24
34.23,7.15,-0.10,7.17,-0.07,0.07,-0.37,0.24,7.22,7.24,7.25
34.57,7.17,-0.06,7.17,-0.06,0.06,-0.37,0.23,7.23,7.24,7.23
34.92,7.19,-0.04,7.18,-0.05,0.05,-0.38,0.22,7.24,7.23,7.23
35.27,7.21,-0.01,7.19,-0.03,0.03,-0.39,0.21,7.24,7.23,7.22
35.62,7.22,-0.00,7.20,-0.02,0.02,-0.40,0.19,7.24,7.22,7.22
35.97,7.23,0.01,7.21,-0.01,0.01,-0.40,0.18,7.24,7.22,7.22
36.33,7.23,0.01,7.22,0.00,-0.00,-0.41,0.16,7.23,7.22,7.22
36.70,7.23,0.02,7.22,0.01,-0.01,-0.42,0.15,7.22,7.22,7.21
37.06,7.23,0.03,7.23,0.02,-0.02,-0.43,0.13,7.21,7.21,7.20
37.43,7.23,0.01,7.23,0.02,-0.02,-0.44,0.12,7.21,7.21,7.22
37.81,7.23,0.02,7.24,0.02,-0.02,-0.45,0.10,7.21,7.21,7.21
38.19,7.23,0.02,7.23,0.02,-0.02,-0.45,0.08,7.21,7.21,7.21
38.57,7.23,0.02,7.23,0.02,-0.02,-0.46,0.06,7.21,7.21,7.21
38.95,7.23,0.01,7.23,0.02,-0.02,-0.47,0.05,7.21,7.21,7.22
39.34,7.23,0.02,7.23,0.02,-0.02,-0.48,0.03,7.21,7.21,7.21
39.74,7.23,0.02,7.23,0.02,-0.02,-0.49,0.01,7.21,7.21,7.21
40.14,7.23,0.02,7.23,0.02,-0.02,-0.50,-0.01,7.21,7.21,7.21
40.54,7.23,0.03,7.23,0.03,-0.03,-0.51,-0.03,7.20,7.20,7.20
40.94,7.23,0.03,7.23,0.03,-0.03,-0.52,-0.05,7.20,7.20,7.20
41.35,7.23,0.04,7.23,0.04,-0.04,-0.53,-0.07,7.19,7.19,7.19
41.76,7.23,0.05,7.23,0.05,-0.05,-0.54,-0.08,7.18,7.18,7.18
42.18,7.23,0.05,7.23,0.06,-0.06,-0.55,-0.10,7.17,7.17,7.18
42.60,7.23,0.06,7.23,0.07,-0.07,-0.56,-0.12,7.16,7.16,7.17
43.03,7.23,0.07,7.23,0.08,-0.08,-0.57,-0.14,7.15,7.15,7.16
43.46,7.23,0.08,7.23,0.09,-0.09,-0.59,-0.16,7.14,7.14,7.15
43.90,7.23,0.11,7.23,0.11,-0.11,-0.60,-0.18,7.12,7.12,7.12
44.33,7.23,0.13,7.23,0.12,-0.12,-0.61,-0.20,7.11,7.11,7.10
44.78,7.23,0.15,7.23,0.14,-0.14,-0.62,-0.22,7.09,7.09,7.08
45.23,7.23,0.16,7.23,0.15,-0.15,-0.63,-0.24,7.08,7.08,7.07
45.68,7.23,0.18,7.23,0.17,-0.17,-0.65,-0.26,7.06,7.06,7.05
46.13,7.23,0.20,7.23,0.18,-0.18,-0.66,-0.28,7.05,7.05,7.03
46.60,7.23,0.20,7.23,0.20,-0.20,-0.67,-0.30,7.03,7.03,7.03
47.06,7.23,0.22,7.23,0.22,-0.22,-0.69,-0.33,7.01,7.01,7.01
47.53,7.23,0.23,7.23,0.23,-0.23,-0.70,-0.35,7.00,7.00,7.00
48.01,7.23,0.23,7.23,0.25,-0.25,-0.71,-0.37,6.98,6.98,7.00
48.49,7.23,0.26,7.23,0.27,-0.27,-0.73,-0.39,6.96,6.96,6.97
48.97,7.23,0.28,7.23,0.28,-0.28,-0.74,-0.41,6.95,6.95,6.95
49.46,7.23,0.30,7.23,0.30,-0.30,-0.76,-0.43,6.93,6.93,6.93
49.96,7.23,0.33,7.23,0.31,-0.31,-0.77,-0.45,6.92,6.92,6.90
50.46,7.23,0.33,7.23,0.33,-0.33,-0.78,-0.48,6.90,6.90,6.90
50.96,7.23,0.34,7.23,0.34,-0.34,-0.80,-0.50,6.89,6.89,6.88
51.47,7.23,0.37,7.23,0.36,-0.36,-0.82,-0.52,6.87,6.87,6.86
51.99,7.23,0.39,7.23,0.38,-0.38,-0.83,-0.54,6.85,6.85,6.84
52.51,7.23,0.39,7.23,0.39,-0.39,-0.85,-0.57,6.84,6.84,6.84
53.03,7.23,0.40,7.23,0.41,-0.41,-0.86,-0.59,6.82,6.82,6.83
53.56,7.23,0.42,7.23,0.42,-0.42,-0.88,-0.61,6.81,6.81,6.81
54.10,7.23,0.44,7.23,0.44,-0.44,-0.90,-0.63,6.79,6.79,6.79
54.64,7.23,0.45,7.23,0.45,-0.45,-0.92,-0.66,6.78,6.78,6.78
55.18,7.23,0.46,7.23,0.46,-0.46,-0.93,-0.68,6.77,6.77,6.77
55.74,7.23,0.48,7.23,0.48,-0.48,-0.95,-0.71,6.75,6.75,6.75
56.29,7.23,0.50,7.23,0.50,-0.50,-0.97,-0.73,6.73,6.73,6.73
56.86,7.23,0.52,7.23,0.51,-0.51,-0.99,-0.75,6.72,6.72,6.71
57.42,7.23,0.55,7.23,0.53,-0.53,-1.01,-0.78,6.70,6.70,6.68
58.00,7.23,0.56,7.23,0.56,-0.56,-1.03,-0.80,6.67,6.67,6.67
58.58,7.23,0.58,7.23,0.59,-0.59,-1.05,-0.83,6.64,6.64,6.65
59.16,7.23,0.60,7.23,0.61,-0.61,-1.07,-0.85,6.62,6.62,6.63
59.76,7.23,0.63,7.23,0.65,-0.65,-1.09,-0.88,6.58,6.58,6.60
60.35,7.23,0.67,7.23,0.68,-0.68,-1.11,-0.90,6.55,6.55,6.56
60.96,7.23,0.71,7.23,0.72,-0.72,-1.13,-0.93,6.51,6.51,6.52
61.57,7.23,0.76,7.23,0.76,-0.76,-1.15,-0.96,6.47,6.47,6.47
62.18,7.23,0.80,7.23,0.80,-0.80,-1.18,-0.98,6.43,6.43,6.43
62.80,7.23,0.85,7.23,0.85,-0.85,-1.20,-1.01,6.38,6.38,6.38
63.43,7.23,0.90,7.23,0.90,-0.90,-1.22,-1.03,6.33,6.33,6.33
64.07,7.23,0.95,7.23,0.94,-0.94,-1.25,-1.06,6.29,6.29,6.28
64.71,7.23,1.01,7.23,1.00,-1.00,-1.27,-1.09,6.23,6.23,6.22
65.35,7.23,1.05,7.23,1.05,-1.05,-1.29,-1.12,6.18,6.18,6.18
66.01,7.23,1.10,7.23,1.10,-1.10,-1.32,-1.15,6.13,6.13,6.13
66.67,7.23,1.16,7.23,1.15,-1.15,-1.34,-1.17,6.08,6.08,6.07
67.33,7.23,1.21,7.23,1.21,-1.21,-1.37,-1.20,6.02,6.02,6.02
68.01,7.23,1.26,7.23,1.26,-1.26,-1.40,-1.23,5.97,5.97,5.97
68.69,7.23,1.32,7.23,1.32,-1.32,-1.42,-1.26,5.91,5.91,5.91
69.37,7.23,1.37,7.23,1.38,-1.38,-1.45,-1.30,5.85,5.85,5.86
70.07,7.23,1.43,7.23,1.43,-1.43,-1.48,-1.33,5.80,5.80,5.80
70.77,7.23,1.48,7.23,1.49,-1.49,-1.51,-1.36,5.73,5.73,5.75
71.48,7.23,1.54,7.23,1.56,-1.56,-1.53,-1.39,5.67,5.67,5.69
72.19,7.23,1.62,7.23,1.62,-1.62,-1.56,-1.43,5.61,5.61,5.61
72.91,7.23,1.68,7.23,1.68,-1.68,-1.59,-1.46,5.55,5.55,5.55
73.64,7.23,1.74,7.23,1.74,-1.74,-1.62,-1.50,5.49,5.49,5.49
74.38,7.23,1.81,7.23,1.81,-1.81,-1.65,-1.54,5.42,5.42,5.42
75.12,7.23,1.88,7.23,1.87,-1.87,-1.68,-1.58,5.36,5.36,5.35
75.87,7.23,1.94,7.23,1.93,-1.93,-1.72,-1.62,5.30,5.30,5.29
76.63,7.23,2.00,7.23,1.99,-1.99,-1.75,-1.66,5.23,5.23,5.23
77.40,7.23,2.06,7.23,2.06,-2.06,-1.78,-1.70,5.17,5.17,5.17
78.17,7.23,2.13,7.23,2.12,-2.12,-1.81,-1.74,5.11,5.11,5.10
78.95,7.23,2.17,7.23,2.18,-2.18,-1.85,-1.79,5.05,5.05,5.06
79.74,7.23,2.23,7.23,2.23,-2.23,-1.88,-1.83,5.00,5.00,5.00
80.54,7.23,2.29,7.23,2.29,-2.29,-1.92,-1.88,4.94,4.94,4.94
81.35,7.23,2.35,7.24,2.35,-2.35,-1.95,-1.93,4.88,4.88,4.88
82.16,7.23,2.40,7.24,2.41,-2.41,-1.99,-1.98,4.82,4.83,4.83
82.98,7.23,2.45,7.24,2.46,-2.46,-2.03,-2.04,4.77,4.77,4.78
83.81,7.23,2.52,7.23,2.52,-2.52,-2.06,-2.09,4.71,4.72,4.71
84.65,7.23,2.57,7.23,2.57,-2.57,-2.10,-2.15,4.66,4.66,4.66
85.50,7.23,2.62,7.22,2.62,-2.62,-2.14,-2.21,4.61,4.60,4.61
86.35,7.23,2.68,7.22,2.68,-2.68,-2.18,-2.27,4.55,4.54,4.55
87.22,7.23,2.74,7.21,2.73,-2.73,-2.22,-2.33,4.50,4.49,4.49
88.09,7.23,2.80,7.21,2.78,-2.78,-2.26,-2.39,4.45,4.43,4.43
88.97,7.22,2.85,7.20,2.83,-2.83,-2.30,-2.46,4.39,4.37,4.37
89.86,7.14,2.83,7.18,2.88,-2.88,-2.34,-2.52,4.26,4.31,4.31
90.76,7.14,2.90,7.17,2.92,-2.92,-2.38,-2.59,4.22,4.25,4.24
91.66,7.14,2.95,7.15,2.97,-2.97,-2.43,-2.66,4.17,4.19,4.19
92.58,7.14,3.02,7.14,3.01,-3.01,-2.47,-2.73,4.13,4.13,4.12
93.51,7.14,3.08,7.12,3.05,-3.05,-2.52,-2.81,4.09,4.07,4.06
94.44,7.14,3.13,7.10,3.09,-3.09,-2.56,-2.88,4.05,4.01,4.01
95.39,7.10,3.15,7.08,3.13,-3.13,-2.61,-2.96,3.97,3.95,3.95
96.34,7.04,3.15,7.06,3.17,-3.17,-2.65,-3.04,3.87,3.89,3.89
97.30,7.03,3.20,7.05,3.21,-3.21,-2.70,-3.12,3.82,3.83,3.83
98.28,7.02,3.25,7.03,3.25,-3.25,-2.75,-3.20,3.77,3.77,3.77
99.26,7.00,3.28,7.01,3.29,-3.29,-2.79,-3.29,3.71,3.72,3.72
100.25,6.99,3.33,6.99,3.34,-3.34,-2.84,-3.37,3.65,3.66,3.66
101.25,6.97,3.37,6.97,3.37,-3.37,-2.89,-3.46,3.60,3.60,3.60
102.27,6.96,3.41,6.95,3.41,-3.41,-2.94,-3.54,3.55,3.54,3.55
103.29,6.94,3.46,6.93,3.45,-3.45,-2.99,-3.63,3.49,3.48,3.48
104.32,6.92,3.49,6.91,3.49,-3.49,-3.04,-3.71,3.43,3.42,3.43
105.37,6.90,3.53,6.89,3.53,-3.53,-3.09,-3.80,3.37,3.36,3.37
106.42,6.87,3.56,6.87,3.57,-3.57,-3.15,-3.88,3.30,3.30,3.31
107.48,6.85,3.60,6.85,3.61,-3.61,-3.20,-3.97,3.24,3.24,3.25
108.56,6.83,3.65,6.83,3.65,-3.65,-3.25,-4.05,3.18,3.18,3.18
109.64,6.81,3.69,6.81,3.69,-3.69,-3.31,-4.13,3.12,3.12,3.12
110.74,6.79,3.74,6.79,3.73,-3.73,-3.36,-4.21,3.06,3.06,3.05
111.85,6.77,3.76,6.77,3.77,-3.77,-3.42,-4.29,3.00,3.00,3.01
112.97,6.76,3.83,6.75,3.81,-3.81,-3.47,-4.36,2.95,2.94,2.93
114.10,6.74,3.87,6.73,3.85,-3.85,-3.53,-4.44,2.89,2.88,2.87
115.24,6.68,3.86,6.71,3.89,-3.89,-3.58,-4.50,2.79,2.82,2.82
116.39,6.66,3.91,6.70,3.93,-3.93,-3.64,-4.57,2.73,2.77,2.75
117.55,6.66,3.95,6.68,3.97,-3.97,-3.70,-4.63,2.69,2.71,2.71
118.73,6.66,4.01,6.67,4.01,-4.01,-3.76,-4.68,2.65,2.66,2.65
119.92,6.67,4.05,6.65,4.04,-4.04,-3.81,-4.73,2.63,2.61,2.62
121.12,6.68,4.12,6.64,4.07,-4.07,-3.87,-4.78,2.61,2.57,2.56
122.33,6.64,4.12,6.62,4.10,-4.10,-3.93,-4.82,2.54,2.52,2.52
123.55,6.60,4.11,6.61,4.13,-4.13,-3.99,-4.85,2.47,2.48,2.49
124.79,6.60,4.16,6.60,4.16,-4.16,-4.05,-4.88,2.44,2.44,2.44
126.03,6.60,4.20,6.59,4.19,-4.19,-4.11,-4.91,2.41,2.40,2.40
127.29,6.61,4.24,6.58,4.22,-4.22,-4.17,-4.92,2.39,2.36,2.37
128.57,6.58,4.26,6.57,4.25,-4.25,-4.23,-4.94,2.33,2.32,2.32
129.85,6.52,4.24,6.56,4.28,-4.28,-4.29,-4.94,2.24,2.28,2.28
131.15,6.53,4.28,6.56,4.31,-4.31,-4.35,-4.95,2.22,2.25,2.25
132.46,6.53,4.32,6.55,4.34,-4.34,-4.41,-4.94,2.19,2.21,2.21
133.79,6.54,4.37,6.54,4.37,-4.37,-4.46,-4.93,2.17,2.17,2.17
135.12,6.54,4.41,6.53,4.40,-4.40,-4.52,-4.92,2.14,2.14,2.13
136.48,6.54,4.44,6.53,4.43,-4.43,-4.58,-4.91,2.11,2.10,2.10
137.84,6.55,4.49,6.53,4.47,-4.47,-4.64,-4.89,2.08,2.06,2.06
139.22,6.55,4.54,6.54,4.51,-4.51,-4.70,-4.87,2.04,2.03,2.01
140.61,6.55,4.58,6.54,4.55,-4.55,-4.76,-4.85,2.00,1.99,1.97
142.02,6.55,4.60,6.55,4.60,-4.60,-4.82,-4.82,1.95,1.95,1.95
143.44,6.55,4.64,6.56,4.66,-4.66,-4.87,-4.79,1.89,1.90,1.91
144.87,6.55,4.69,6.58,4.72,-4.72,-4.93,-4.77,1.83,1.86,1.86
146.32,6.55,4.74,6.59,4.79,-4.79,-4.99,-4.74,1.76,1.81,1.81
147.78,6.55,4.78,6.60,4.86,-4.86,-5.04,-4.71,1.69,1.75,1.77
149.26,6.61,4.89,6.61,4.93,-4.93,-5.09,-4.68,1.68,1.69,1.72
150.75,6.65,5.01,6.63,5.00,-5.00,-5.15,-4.66,1.64,1.62,1.64
152.26,6.65,5.08,6.63,5.08,-5.08,-5.20,-4.63,1.57,1.55,1.57
153.78,6.65,5.16,6.64,5.16,-5.16,-5.25,-4.61,1.49,1.48,1.49
155.32,6.65,5.24,6.64,5.24,-5.24,-5.30,-4.58,1.41,1.40,1.41
156.88,6.65,5.32,6.63,5.31,-5.31,-5.35,-4.56,1.34,1.32,1.33
158.44,6.65,5.41,6.61,5.37,-5.37,-5.39,-4.54,1.28,1.24,1.24
160.03,6.63,5.48,6.59,5.42,-5.42,-5.44,-4.53,1.21,1.17,1.15
161.63,6.56,5.49,6.55,5.46,-5.46,-5.48,-4.51,1.10,1.10,1.07
163.24,6.54,5.54,6.51,5.48,-5.48,-5.53,-4.50,1.06,1.03,1.00
164.88,6.48,5.53,6.46,5.49,-5.49,-5.57,-4.49,0.99,0.97,0.95
166.53,6.45,5.56,6.40,5.49,-5.49,-5.60,-4.49,0.96,0.91,0.89
168.19,6.37,5.52,6.35,5.48,-5.48,-5.64,-4.49,0.89,0.87,0.85
169.87,6.33,5.53,6.30,5.47,-5.47,-5.67,-4.49,0.86,0.83,0.80
171.57,6.23,5.45,6.26,5.46,-5.46,-5.71,-4.49,0.77,0.79,0.78
173.29,6.14,5.38,6.22,5.45,-5.45,-5.74,-4.50,0.69,0.77,0.76
175.02,6.11,5.36,6.19,5.44,-5.44,-5.76,-4.52,0.67,0.75,0.75
176.77,6.10,5.37,6.17,5.44,-5.44,-5.79,-4.53,0.66,0.73,0.73
178.54,6.10,5.38,6.16,5.44,-5.44,-5.81,-4.55,0.66,0.72,0.72
180.32,6.11,5.39,6.15,5.44,-5.44,-5.83,-4.57,0.67,0.71,0.72
182.13,6.11,5.39,6.15,5.46,-5.46,-5.85,-4.60,0.65,0.70,0.72
183.95,6.14,5.44,6.16,5.47,-5.47,-5.86,-4.63,0.67,0.69,0.70
185.79,6.23,5.53,6.17,5.50,-5.50,-5.88,-4.66,0.73,0.68,0.70
187.65,6.25,5.58,6.19,5.53,-5.53,-5.89,-4.70,0.72,0.66,0.67
189.52,6.27,5.61,6.20,5.56,-5.56,-5.89,-4.74,0.71,0.65,0.66
191.42,6.28,5.65,6.22,5.59,-5.59,-5.90,-4.78,0.69,0.63,0.63
193.33,6.29,5.68,6.24,5.63,-5.63,-5.90,-4.82,0.66,0.61,0.61
195.27,6.26,5.67,6.25,5.66,-5.66,-5.90,-4.87,0.60,0.59,0.59
197.22,6.23,5.66,6.26,5.69,-5.69,-5.89,-4.92,0.54,0.57,0.57
199.19,6.23,5.69,6.26,5.72,-5.72,-5.89,-4.97,0.51,0.54,0.54
201.18,6.24,5.72,6.27,5.75,-5.75,-5.88,-5.03,0.49,0.52,0.52
203.19,6.24,5.74,6.27,5.78,-5.78,-5.86,-5.09,0.46,0.49,0.50
205.23,6.25,5.78,6.27,5.80,-5.80,-5.85,-5.14,0.45,0.47,0.47
207.28,6.25,5.79,6.25,5.81,-5.81,-5.83,-5.20,0.44,0.45,0.46
209.35,6.24,5.81,6.24,5.82,-5.82,-5.81,-5.26,0.42,0.42,0.43
211.44,6.24,5.85,6.23,5.83,-5.83,-5.79,-5.32,0.41,0.40,0.39
213.56,6.24,5.85,6.22,5.83,-5.83,-5.76,-5.38,0.41,0.39,0.39
215.69,6.23,5.86,6.20,5.84,-5.84,-5.73,-5.44,0.39,0.37,0.37
217.85,6.23,5.87,6.19,5.84,-5.84,-5.70,-5.50,0.39,0.35,0.36
220.03,6.23,5.89,6.17,5.83,-5.83,-5.67,-5.56,0.40,0.34,0.34
222.23,6.19,5.87,6.14,5.81,-5.81,-5.64,-5.61,0.38,0.33,0.32
224.45,6.07,5.75,6.12,5.79,-5.79,-5.60,-5.66,0.28,0.33,0.32
226.70,6.02,5.70,6.10,5.77,-5.77,-5.56,-5.71,0.25,0.33,0.32
228.96,6.03,5.70,6.07,5.75,-5.75,-5.52,-5.75,0.28,0.33,0.33
231.25,6.03,5.70,6.05,5.71,-5.71,-5.48,-5.79,0.32,0.33,0.33
233.57,6.04,5.70,6.02,5.68,-5.68,-5.43,-5.83,0.36,0.34,0.34
235.90,6.01,5.66,6.00,5.64,-5.64,-5.39,-5.85,0.37,0.35,0.35
238.26,5.97,5.61,5.98,5.61,-5.61,-5.34,-5.87,0.36,0.37,0.36
240.64,5.91,5.53,5.96,5.57,-5.57,-5.29,-5.89,0.34,0.38,0.38
243.05,5.91,5.50,5.94,5.53,-5.53,-5.24,-5.89,0.38,0.40,0.41
245.48,5.92,5.49,5.92,5.49,-5.49,-5.18,-5.89,0.43,0.42,0.43
247.93,5.95,5.49,5.90,5.46,-5.46,-5.13,-5.88,0.49,0.44,0.46
250.41,5.94,5.47,5.88,5.42,-5.42,-5.08,-5.87,0.52,0.47,0.47
252.92,5.82,5.32,5.86,5.37,-5.37,-5.02,-5.84,0.45,0.49,0.50
255.45,5.80,5.28,5.83,5.32,-5.32,-4.96,-5.81,0.48,0.51,0.52
258.00,5.81,5.27,5.80,5.26,-5.26,-4.91,-5.76,0.55,0.53,0.54
260.58,5.81,5.26,5.76,5.21,-5.21,-4.85,-5.72,0.60,0.56,0.55
263.19,5.75,5.17,5.73,5.15,-5.15,-4.79,-5.66,0.60,0.58,0.58
265.82,5.63,5.03,5.69,5.09,-5.09,-4.73,-5.59,0.54,0.60,0.60
268.48,5.61,4.99,5.64,5.01,-5.01,-4.67,-5.52,0.60,0.63,0.62
271.16,5.60,4.95,5.58,4.93,-4.93,-4.60,-5.45,0.67,0.65,0.65
273.87,5.53,4.86,5.52,4.84,-4.84,-4.54,-5.37,0.69,0.67,0.67
276.61,5.48,4.78,5.45,4.75,-4.75,-4.48,-5.28,0.73,0.70,0.70
279.38,5.41,4.69,5.39,4.66,-4.66,-4.42,-5.19,0.75,0.72,0.72
282.17,5.34,4.59,5.33,4.58,-4.58,-4.36,-5.09,0.76,0.75,0.75
284.99,5.29,4.51,5.26,4.48,-4.48,-4.29,-4.99,0.81,0.78,0.78
287.84,5.17,4.37,5.18,4.37,-4.37,-4.23,-4.89,0.79,0.80,0.80
290.72,5.08,4.25,5.10,4.27,-4.27,-4.17,-4.79,0.81,0.83,0.83
293.63,4.96,4.11,5.03,4.17,-4.17,-4.10,-4.68,0.79,0.86,0.85
296.57,4.91,4.02,4.95,4.06,-4.06,-4.04,-4.58,0.85,0.89,0.89
299.53,4.87,3.96,4.87,3.96,-3.96,-3.98,-4.47,0.91,0.91,0.91
302.53,4.79,3.86,4.79,3.85,-3.85,-3.91,-4.36,0.94,0.94,0.93
305.55,4.75,3.77,4.71,3.74,-3.74,-3.85,-4.25,1.01,0.96,0.98
308.61,4.67,3.68,4.63,3.64,-3.64,-3.79,-4.15,1.03,0.99,0.99
311.69,4.57,3.55,4.55,3.54,-3.54,-3.73,-4.04,1.03,1.01,1.02
314.81,4.46,3.42,4.46,3.43,-3.43,-3.66,-3.93,1.03,1.03,1.04
317.96,4.35,3.29,4.37,3.32,-3.32,-3.60,-3.83,1.03,1.05,1.06
321.14,4.31,3.24,4.30,3.23,-3.23,-3.54,-3.73,1.08,1.07,1.07
324.35,4.26,3.18,4.22,3.13,-3.13,-3.48,-3.62,1.13,1.09,1.08
327.59,4.16,3.06,4.15,3.05,-3.05,-3.42,-3.52,1.11,1.10,1.10
330.87,4.07,2.96,4.07,2.96,-2.96,-3.35,-3.43,1.11,1.11,1.11
334.18,3.97,2.85,4.00,2.87,-2.87,-3.29,-3.33,1.10,1.12,1.12
337.52,3.90,2.77,3.94,2.81,-2.81,-3.23,-3.24,1.09,1.13,1.13
340.90,3.87,2.72,3.89,2.75,-2.75,-3.17,-3.14,1.12,1.14,1.15
344.30,3.81,2.66,3.85,2.71,-2.71,-3.11,-3.05,1.10,1.15,1.15
347.75,3.71,2.56,3.83,2.67,-2.67,-3.06,-2.96,1.04,1.15,1.15
351.23,3.77,2.61,3.80,2.65,-2.65,-3.00,-2.88,1.12,1.16,1.16
354.74,3.84,2.68,3.78,2.62,-2.62,-2.94,-2.79,1.22,1.16,1.16
358.28,3.73,2.57,3.76,2.59,-2.59,-2.88,-2.71,1.14,1.16,1.16
361.87,3.70,2.54,3.73,2.57,-2.57,-2.82,-2.63,1.13,1.16,1.16
365.49,3.71,2.54,3.71,2.55,-2.55,-2.77,-2.56,1.16,1.16,1.17
369.14,3.76,2.60,3.69,2.53,-2.53,-2.71,-2.48,1.23,1.16,1.16
372.83,3.81,2.66,3.67,2.51,-2.51,-2.65,-2.41,1.30,1.16,1.15
376.56,3.70,2.55,3.64,2.48,-2.48,-2.60,-2.34,1.22,1.16,1.15
380.33,3.62,2.46,3.61,2.46,-2.46,-2.54,-2.27,1.16,1.15,1.16
384.13,3.56,2.40,3.57,2.42,-2.42,-2.49,-2.20,1.14,1.15,1.16
387.97,3.49,2.34,3.52,2.37,-2.37,-2.43,-2.13,1.12,1.14,1.15
391.85,3.43,2.29,3.45,2.31,-2.31,-2.38,-2.07,1.12,1.14,1.14
395.77,3.37,2.23,3.39,2.26,-2.26,-2.32,-2.01,1.11,1.13,1.14
399.73,3.30,2.17,3.34,2.21,-2.21,-2.27,-1.95,1.09,1.13,1.13
403.72,3.27,2.14,3.26,2.14,-2.14,-2.22,-1.89,1.13,1.12,1.13
407.76,3.30,2.18,3.18,2.06,-2.06,-2.17,-1.83,1.24,1.12,1.12
411.84,3.14,2.02,3.11,1.99,-1.99,-2.11,-1.78,1.15,1.11,1.12
415.96,3.04,1.92,3.04,1.93,-1.93,-2.06,-1.73,1.11,1.11,1.12
420.12,3.03,1.91,2.99,1.88,-1.88,-2.01,-1.67,1.15,1.11,1.12
424.32,2.85,1.74,2.94,1.82,-1.82,-1.96,-1.62,1.03,1.12,1.11
428.56,2.85,1.73,2.90,1.77,-1.77,-1.91,-1.57,1.08,1.13,1.12
432.85,2.90,1.77,2.88,1.73,-1.73,-1.86,-1.52,1.17,1.15,1.13
437.18,2.82,1.68,2.86,1.69,-1.69,-1.81,-1.48,1.13,1.17,1.14
441.55,2.74,1.56,2.85,1.66,-1.66,-1.76,-1.43,1.08,1.19,1.18
445.96,2.71,1.50,2.85,1.62,-1.62,-1.71,-1.39,1.09,1.22,1.21
450.42,2.85,1.61,2.85,1.59,-1.59,-1.66,-1.34,1.26,1.26,1.24
454.93,2.95,1.66,2.87,1.57,-1.57,-1.61,-1.30,1.38,1.30,1.29
459.48,2.90,1.56,2.90,1.55,-1.55,-1.56,-1.26,1.35,1.34,1.34
464.07,2.91,1.53,2.92,1.53,-1.53,-1.51,-1.22,1.38,1.39,1.38
468.71,2.96,1.52,2.95,1.51,-1.51,-1.46,-1.18,1.45,1.44,1.44
473.40,3.02,1.54,2.98,1.49,-1.49,-1.41,-1.14,1.53,1.49,1.48
478.13,3.06,1.52,2.99,1.46,-1.46,-1.36,-1.10,1.60,1.53,1.54
482.91,3.04,1.46,3.00,1.42,-1.42,-1.31,-1.06,1.62,1.58,1.58
487.74,3.02,1.40,3.03,1.41,-1.41,-1.26,-1.03,1.61,1.62,1.62
492.62,3.01,1.34,3.04,1.38,-1.38,-1.21,-0.99,1.63,1.66,1.67
497.55,3.03,1.34,3.03,1.35,-1.35,-1.16,-0.95,1.68,1.69,1.69
502.52,3.05,1.33,3.02,1.31,-1.31,-1.11,-0.92,1.74,1.71,1.72
507.55,2.94,1.21,2.99,1.27,-1.27,-1.06,-0.88,1.67,1.72,1.73
512.62,2.92,1.18,2.95,1.23,-1.23,-1.01,-0.85,1.69,1.73,1.74
517.75,2.98,1.23,2.92,1.19,-1.19,-0.96,-0.81,1.79,1.72,1.75
522.93,2.86,1.12,2.88,1.16,-1.16,-0.91,-0.78,1.70,1.71,1.74
528.16,2.80,1.09,2.82,1.13,-1.13,-0.86,-0.75,1.67,1.69,1.71
533.44,2.90,1.22,2.75,1.09,-1.09,-0.81,-0.71,1.81,1.66,1.68
538.77,2.81,1.16,2.69,1.06,-1.06,-0.76,-0.68,1.75,1.62,1.65
544.16,2.54,0.95,2.62,1.04,-1.04,-0.71,-0.65,1.50,1.58,1.59
549.60,2.53,0.99,2.55,1.02,-1.02,-0.66,-0.62,1.51,1.53,1.54
