frequency,raw,error,smoothed,error_smoothed,equalization,parametric_eq,fixed_band_eq,equalized_raw,equalized_smoothed,target
20.00,-12.67,-18.48,-12.67,-18.48,18.48,16.18,7.02,5.81,5.81,5.81
20.20,-12.53,-18.38,-12.53,-18.38,18.38,16.42,7.18,5.85,5.85,5.85
20.40,-12.39,-18.28,-12.39,-18.28,18.28,16.67,7.34,5.89,5.89,5.89
20.61,-12.25,-18.17,-12.25,-18.18,18.18,16.90,7.50,5.92,5.93,5.92
20.81,-12.11,-18.07,-12.11,-18.07,18.07,17.12,7.67,5.96,5.96,5.96
21.02,-11.97,-17.97,-11.97,-17.96,17.96,17.32,7.84,5.99,5.99,6.00
21.23,-11.82,-17.84,-11.82,-17.85,17.84,17.51,8.02,6.02,6.02,6.02
21.44,-11.68,-17.72,-11.68,-17.72,17.72,17.67,8.20,6.04,6.04,6.04
21.66,-11.54,-17.60,-11.54,-17.59,17.60,17.81,8.38,6.06,6.06,6.06
21.87,-11.39,-17.46,-11.39,-17.47,17.47,17.92,8.58,6.08,6.08,6.07
22.09,-11.25,-17.34,-11.25,-17.34,17.34,18.00,8.77,6.09,6.09,6.09
22.31,-11.11,-17.21,-11.10,-17.21,17.21,18.05,8.97,6.10,6.10,6.10
22.54,-10.96,-17.07,-10.96,-17.08,17.07,18.06,9.18,6.11,6.11,6.11
22.76,-10.82,-16.94,-10.82,-16.94,16.94,18.04,9.39,6.12,6.12,6.12
22.99,-10.68,-16.80,-10.68,-16.80,16.80,17.98,9.61,6.12,6.12,6.12
23.22,-10.53,-16.66,-10.53,-16.66,16.67,17.88,9.84,6.14,6.14,6.13
23.45,-10.38,-16.52,-10.38,-16.52,16.53,17.76,10.07,6.15,6.15,6.14
23.69,-10.23,-16.38,-10.23,-16.38,16.39,17.60,10.31,6.16,6.16,6.15
23.92,-10.09,-16.25,-10.09,-16.25,16.25,17.42,10.55,6.16,6.17,6.16
24.16,-9.94,-16.12,-9.94,-16.12,16.11,17.21,10.81,6.17,6.17,6.18
24.40,-9.79,-15.99,-9.79,-15.98,15.97,16.99,11.06,6.19,6.18,6.20
24.65,-9.64,-15.83,-9.64,-15.84,15.84,16.76,11.33,6.19,6.20,6.19
24.89,-9.49,-15.69,-9.49,-15.69,15.70,16.52,11.61,6.21,6.21,6.20
25.14,-9.34,-15.55,-9.34,-15.55,15.56,16.29,11.89,6.22,6.22,6.21
25.39,-9.19,-15.41,-9.19,-15.41,15.41,16.05,12.18,6.23,6.23,6.22
25.65,-9.04,-15.28,-9.04,-15.27,15.27,15.83,12.47,6.23,6.23,6.24
25.91,-8.89,-15.13,-8.89,-15.14,15.13,15.61,12.78,6.24,6.24,6.24
26.16,-8.74,-14.99,-8.74,-14.99,15.00,15.41,13.09,6.26,6.25,6.25
26.43,-8.59,-14.85,-8.59,-14.85,14.86,15.21,13.41,6.26,6.27,6.26
26.69,-8.44,-14.71,-8.44,-14.72,14.72,15.03,13.73,6.28,6.27,6.27
26.96,-8.29,-14.58,-8.29,-14.58,14.57,14.86,14.07,6.28,6.28,6.29
27.23,-8.14,-14.44,-8.14,-14.44,14.43,14.70,14.40,6.29,6.29,6.30
27.50,-7.99,-14.29,-7.99,-14.29,14.29,14.55,14.74,6.30,6.30,6.30
27.77,-7.83,-14.13,-7.83,-14.14,14.14,14.40,15.08,6.32,6.31,6.30
28.05,-7.68,-14.00,-7.68,-13.99,14.00,14.26,15.42,6.32,6.32,6.32
28.33,-7.53,-13.85,-7.53,-13.85,13.86,14.12,15.76,6.33,6.33,6.32
28.62,-7.38,-13.71,-7.38,-13.71,13.71,13.99,16.09,6.33,6.33,6.33
28.90,-7.23,-13.57,-7.23,-13.57,13.57,13.85,16.41,6.34,6.34,6.34
29.19,-7.08,-13.42,-7.08,-13.43,13.43,13.72,16.71,6.35,6.35,6.34
29.48,-6.93,-13.30,-6.93,-13.29,13.29,13.58,16.98,6.36,6.36,6.37
29.78,-6.78,-13.14,-6.78,-13.15,13.15,13.45,17.23,6.37,6.37,6.36
30.08,-6.63,-13.00,-6.63,-13.01,13.01,13.32,17.44,6.38,6.38,6.37
30.38,-6.49,-12.86,-6.49,-12.87,12.87,13.18,17.61,6.38,6.38,6.37
30.68,-6.35,-12.74,-6.35,-12.74,12.73,13.05,17.73,6.38,6.38,6.39
30.99,-6.21,-12.60,-6.21,-12.60,12.59,12.91,17.79,6.38,6.39,6.39
31.30,-6.06,-12.45,-6.06,-12.46,12.45,12.77,17.80,6.39,6.39,6.39
31.61,-5.91,-12.31,-5.91,-12.31,12.31,12.63,17.75,6.40,6.40,6.40
31.93,-5.76,-12.17,-5.76,-12.17,12.18,12.49,17.65,6.41,6.41,6.41
32.24,-5.62,-12.03,-5.62,-12.03,12.03,12.35,17.49,6.42,6.42,6.41
32.57,-5.47,-11.90,-5.47,-11.89,11.89,12.21,17.29,6.42,6.42,6.43
32.89,-5.32,-11.75,-5.32,-11.75,11.75,12.07,17.05,6.43,6.43,6.43
33.22,-5.17,-11.61,-5.17,-11.61,11.61,11.92,16.77,6.44,6.44,6.44
33.55,-5.02,-11.47,-5.02,-11.47,11.47,11.78,16.46,6.46,6.45,6.45
33.89,-4.88,-11.34,-4.88,-11.34,11.34,11.63,16.14,6.46,6.46,6.46
34.23,-4.73,-11.19,-4.73,-11.20,11.20,11.48,15.80,6.47,6.46,6.46
34.57,-4.59,-11.06,-4.59,-11.06,11.06,11.33,15.45,6.47,6.47,6.47
34.92,-4.44,-10.91,-4.44,-10.92,10.92,11.18,15.09,6.48,6.47,6.47
35.27,-4.30,-10.78,-4.30,-10.78,10.78,11.03,14.73,6.48,6.48,6.48
35.62,-4.16,-10.64,-4.16,-10.64,10.64,10.88,14.38,6.48,6.48,6.48
35.97,-4.02,-10.50,-4.02,-10.50,10.51,10.72,14.02,6.49,6.49,6.48
36.33,-3.88,-10.37,-3.88,-10.37,10.37,10.56,13.67,6.49,6.49,6.49
36.70,-3.74,-10.22,-3.74,-10.23,10.23,10.41,13.32,6.49,6.49,6.48
37.06,-3.61,-10.10,-3.61,-10.10,10.10,10.25,12.98,6.49,6.49,6.49
37.43,-3.47,-9.96,-3.47,-9.96,9.96,10.09,12.64,6.49,6.49,6.49
37.81,-3.34,-9.83,-3.34,-9.83,9.82,9.93,12.31,6.48,6.49,6.49
38.19,-3.20,-9.69,-3.20,-9.69,9.68,9.77,11.99,6.48,6.48,6.49
38.57,-3.06,-9.54,-3.06,-9.55,9.55,9.61,11.68,6.49,6.48,6.48
38.95,-2.93,-9.41,-2.93,-9.40,9.41,9.44,11.37,6.48,6.48,6.48
39.34,-2.79,-9.26,-2.79,-9.26,9.27,9.28,11.07,6.48,6.48,6.47
39.74,-2.65,-9.12,-2.65,-9.12,9.13,9.12,10.78,6.48,6.48,6.47
40.14,-2.51,-8.98,-2.51,-8.99,8.99,8.96,10.50,6.48,6.47,6.47
40.54,-2.38,-8.85,-2.38,-8.85,8.85,8.80,10.22,6.47,6.47,6.47
40.94,-2.25,-8.71,-2.25,-8.71,8.71,8.63,9.95,6.46,6.46,6.46
41.35,-2.11,-8.57,-2.11,-8.57,8.57,8.47,9.68,6.46,6.46,6.46
41.76,-1.97,-8.43,-1.97,-8.43,8.43,8.31,9.42,6.46,6.46,6.46
42.18,-1.83,-8.29,-1.83,-8.29,8.29,8.15,9.17,6.46,6.46,6.46
42.60,-1.69,-8.15,-1.69,-8.15,8.15,7.99,8.92,6.46,6.46,6.46
43.03,-1.55,-8.01,-1.55,-8.01,8.01,7.83,8.68,6.46,6.46,6.46
43.46,-1.42,-7.88,-1.42,-7.87,7.87,7.67,8.45,6.45,6.45,6.46
43.90,-1.28,-7.72,-1.28,-7.73,7.73,7.52,8.22,6.45,6.45,6.44
44.33,-1.15,-7.59,-1.15,-7.59,7.60,7.36,7.99,6.45,6.45,6.44
44.78,-1.02,-7.45,-1.02,-7.46,7.46,7.21,7.77,6.44,6.44,6.43
45.23,-0.90,-7.33,-0.90,-7.33,7.33,7.06,7.55,6.43,6.43,6.43
45.68,-0.77,-7.20,-0.77,-7.20,7.20,6.91,7.34,6.43,6.43,6.43
46.13,-0.64,-7.06,-0.64,-7.07,7.07,6.76,7.13,6.43,6.42,6.42
46.60,-0.51,-6.94,-0.51,-6.93,6.93,6.61,6.93,6.42,6.42,6.43
47.06,-0.38,-6.80,-0.38,-6.80,6.80,6.47,6.73,6.42,6.42,6.42
47.53,-0.25,-6.66,-0.25,-6.67,6.67,6.32,6.54,6.42,6.42,6.41
48.01,-0.12,-6.54,-0.12,-6.54,6.53,6.18,6.34,6.41,6.41,6.42
48.49,-0.00,-6.40,0.00,-6.40,6.40,6.04,6.15,6.40,6.40,6.40
48.97,0.12,-6.26,0.12,-6.26,6.26,5.90,5.97,6.38,6.39,6.38
49.46,0.25,-6.12,0.25,-6.12,6.13,5.76,5.79,6.38,6.37,6.37
49.96,0.37,-5.98,0.37,-5.99,5.99,5.63,5.61,6.36,6.36,6.35
50.46,0.49,-5.86,0.49,-5.85,5.85,5.49,5.44,6.34,6.34,6.35
50.96,0.61,-5.72,0.61,-5.72,5.72,5.36,5.26,6.33,6.33,6.33
51.47,0.73,-5.57,0.73,-5.58,5.58,5.23,5.10,6.31,6.31,6.30
51.99,0.85,-5.44,0.85,-5.44,5.45,5.11,4.93,6.30,6.30,6.29
52.51,0.96,-5.32,0.96,-5.32,5.32,4.98,4.77,6.28,6.28,6.28
53.03,1.08,-5.18,1.08,-5.19,5.18,4.85,4.61,6.26,6.26,6.26
53.56,1.19,-5.06,1.19,-5.06,5.05,4.73,4.45,6.24,6.24,6.25
54.10,1.31,-4.91,1.30,-4.92,4.92,4.61,4.30,6.23,6.23,6.22
54.64,1.41,-4.80,1.41,-4.79,4.79,4.49,4.15,6.20,6.21,6.21
55.18,1.52,-4.66,1.52,-4.66,4.66,4.37,4.00,6.18,6.19,6.18
55.74,1.63,-4.52,1.63,-4.54,4.53,4.26,3.86,6.16,6.16,6.15
56.29,1.74,-4.41,1.74,-4.40,4.40,4.14,3.72,6.14,6.14,6.15
56.86,1.84,-4.28,1.84,-4.28,4.28,4.03,3.58,6.12,6.12,6.12
57.42,1.95,-4.14,1.95,-4.15,4.15,3.92,3.45,6.10,6.09,6.09
58.00,2.05,-4.02,2.05,-4.02,4.02,3.81,3.32,6.07,6.07,6.07
58.58,2.16,-3.89,2.16,-3.89,3.89,3.70,3.19,6.05,6.06,6.05
59.16,2.27,-3.76,2.27,-3.76,3.76,3.60,3.07,6.03,6.03,6.03
59.76,2.38,-3.63,2.37,-3.64,3.63,3.49,2.95,6.01,6.01,6.01
60.35,2.47,-3.51,2.47,-3.51,3.51,3.39,2.83,5.98,5.98,5.98
60.96,2.56,-3.39,2.57,-3.38,3.38,3.28,2.72,5.94,5.94,5.95
61.57,2.66,-3.24,2.66,-3.25,3.25,3.18,2.61,5.91,5.91,5.90
62.18,2.76,-3.10,2.75,-3.12,3.12,3.08,2.50,5.88,5.87,5.86
62.80,2.84,-3.00,2.84,-2.99,2.99,2.98,2.40,5.83,5.83,5.84
63.43,2.93,-2.86,2.93,-2.86,2.86,2.88,2.30,5.79,5.79,5.79
64.07,3.02,-2.73,3.02,-2.74,2.74,2.79,2.20,5.76,5.76,5.75
64.71,3.11,-2.61,3.11,-2.61,2.61,2.69,2.11,5.72,5.72,5.72
65.35,3.20,-2.48,3.20,-2.48,2.49,2.60,2.02,5.69,5.69,5.68
66.01,3.28,-2.36,3.28,-2.37,2.37,2.50,1.93,5.65,5.65,5.64
66.67,3.36,-2.25,3.36,-2.25,2.25,2.41,1.84,5.60,5.61,5.61
67.33,3.44,-2.13,3.44,-2.13,2.12,2.32,1.76,5.56,5.57,5.57
68.01,3.53,-2.00,3.53,-2.01,2.00,2.23,1.68,5.53,5.53,5.53
68.69,3.61,-1.88,3.61,-1.88,1.88,2.14,1.60,5.49,5.49,5.49
69.37,3.69,-1.76,3.69,-1.76,1.76,2.05,1.52,5.45,5.45,5.45
70.07,3.77,-1.64,3.77,-1.64,1.64,1.96,1.45,5.41,5.41,5.41
70.77,3.85,-1.52,3.85,-1.52,1.52,1.88,1.38,5.37,5.37,5.37
71.48,3.94,-1.40,3.94,-1.40,1.40,1.79,1.30,5.34,5.34,5.34
72.19,4.02,-1.27,4.02,-1.28,1.28,1.70,1.23,5.30,5.30,5.29
72.91,4.10,-1.16,4.10,-1.16,1.17,1.62,1.16,5.27,5.27,5.26
73.64,4.17,-1.05,4.17,-1.05,1.05,1.54,1.10,5.22,5.22,5.22
74.38,4.25,-0.94,4.25,-0.94,0.94,1.45,1.03,5.18,5.18,5.19
75.12,4.32,-0.83,4.33,-0.83,0.82,1.37,0.96,5.14,5.15,5.15
75.87,4.41,-0.71,4.41,-0.72,0.71,1.29,0.90,5.12,5.11,5.12
76.63,4.49,-0.60,4.49,-0.60,0.60,1.21,0.83,5.09,5.08,5.09
77.40,4.57,-0.49,4.58,-0.48,0.49,1.12,0.77,5.06,5.07,5.06
78.17,4.66,-0.37,4.66,-0.37,0.39,1.04,0.70,5.05,5.04,5.03
78.95,4.74,-0.26,4.73,-0.27,0.29,0.96,0.64,5.03,5.02,5.00
79.74,4.79,-0.19,4.80,-0.19,0.19,0.88,0.57,4.99,4.99,4.98
80.54,4.85,-0.11,4.85,-0.11,0.11,0.81,0.51,4.96,4.96,4.96
81.35,4.90,-0.03,4.90,-0.03,0.02,0.73,0.44,4.92,4.92,4.93
82.16,4.95,0.05,4.95,0.05,-0.06,0.65,0.37,4.89,4.90,4.90
82.98,5.01,0.12,5.01,0.13,-0.13,0.57,0.31,4.88,4.88,4.89
83.81,5.07,0.21,5.07,0.21,-0.20,0.49,0.24,4.87,4.86,4.86
84.65,5.12,0.29,5.12,0.28,-0.27,0.42,0.17,4.85,4.84,4.83
85.50,5.16,0.34,5.17,0.35,-0.34,0.34,0.10,4.82,4.82,4.82
86.35,5.21,0.41,5.21,0.41,-0.41,0.26,0.03,4.80,4.80,4.80
87.22,5.26,0.48,5.26,0.48,-0.48,0.19,-0.04,4.78,4.78,4.78
88.09,5.30,0.54,5.30,0.54,-0.54,0.11,-0.11,4.76,4.76,4.76
88.97,5.34,0.60,5.34,0.59,-0.60,0.04,-0.18,4.74,4.74,4.74
89.86,5.37,0.64,5.37,0.65,-0.65,-0.04,-0.25,4.72,4.73,4.73
90.76,5.41,0.71,5.41,0.70,-0.70,-0.11,-0.33,4.71,4.71,4.70
91.66,5.44,0.76,5.44,0.75,-0.75,-0.18,-0.40,4.69,4.69,4.68
92.58,5.46,0.80,5.46,0.80,-0.79,-0.26,-0.47,4.67,4.67,4.66
93.51,5.48,0.83,5.48,0.83,-0.84,-0.33,-0.55,4.64,4.64,4.65
94.44,5.50,0.87,5.50,0.87,-0.88,-0.41,-0.63,4.62,4.62,4.63
95.39,5.52,0.91,5.52,0.91,-0.91,-0.48,-0.70,4.61,4.61,4.61
96.34,5.53,0.95,5.53,0.95,-0.94,-0.55,-0.78,4.59,4.59,4.58
97.30,5.54,0.99,5.54,0.99,-0.97,-0.62,-0.86,4.57,4.56,4.55
98.28,5.54,1.02,5.54,1.01,-1.00,-0.70,-0.94,4.54,4.54,4.52
99.26,5.53,1.03,5.53,1.03,-1.03,-0.77,-1.02,4.50,4.50,4.50
100.25,5.52,1.05,5.52,1.05,-1.06,-0.84,-1.10,4.46,4.47,4.47
101.25,5.51,1.07,5.51,1.07,-1.08,-0.91,-1.18,4.43,4.43,4.44
102.27,5.51,1.11,5.51,1.10,-1.11,-0.98,-1.26,4.40,4.40,4.40
103.29,5.51,1.14,5.51,1.14,-1.14,-1.05,-1.34,4.37,4.37,4.37
104.32,5.51,1.17,5.51,1.17,-1.17,-1.12,-1.42,4.34,4.34,4.34
105.37,5.51,1.21,5.51,1.21,-1.21,-1.19,-1.50,4.30,4.30,4.30
106.42,5.51,1.26,5.51,1.25,-1.25,-1.26,-1.58,4.26,4.26,4.25
107.48,5.51,1.29,5.51,1.30,-1.30,-1.33,-1.66,4.21,4.21,4.22
108.56,5.51,1.35,5.51,1.35,-1.34,-1.40,-1.73,4.17,4.17,4.16
109.64,5.51,1.40,5.51,1.39,-1.40,-1.47,-1.81,4.11,4.11,4.11
110.74,5.51,1.45,5.51,1.45,-1.45,-1.53,-1.88,4.06,4.06,4.06
111.85,5.51,1.50,5.51,1.50,-1.51,-1.60,-1.95,4.00,4.00,4.01
112.97,5.51,1.57,5.51,1.56,-1.56,-1.67,-2.02,3.95,3.95,3.94
114.10,5.51,1.62,5.51,1.62,-1.62,-1.73,-2.09,3.89,3.89,3.89
115.24,5.51,1.68,5.51,1.68,-1.68,-1.80,-2.15,3.83,3.83,3.83
116.39,5.51,1.75,5.51,1.74,-1.74,-1.86,-2.21,3.77,3.77,3.76
117.55,5.51,1.81,5.51,1.81,-1.80,-1.93,-2.27,3.71,3.71,3.70
118.73,5.51,1.87,5.51,1.87,-1.86,-1.99,-2.32,3.65,3.65,3.64
119.92,5.51,1.92,5.51,1.92,-1.92,-2.05,-2.37,3.59,3.59,3.59
121.12,5.51,1.98,5.51,1.98,-1.97,-2.11,-2.42,3.54,3.54,3.53
122.33,5.51,2.03,5.51,2.03,-2.03,-2.17,-2.46,3.48,3.48,3.48
123.55,5.51,2.08,5.51,2.08,-2.08,-2.23,-2.49,3.43,3.43,3.43
124.79,5.51,2.13,5.51,2.13,-2.13,-2.29,-2.53,3.38,3.37,3.38
126.03,5.51,2.18,5.51,2.18,-2.19,-2.35,-2.56,3.32,3.32,3.33
127.29,5.51,2.23,5.51,2.23,-2.24,-2.41,-2.58,3.27,3.27,3.28
128.57,5.52,2.30,5.52,2.29,-2.30,-2.46,-2.60,3.22,3.22,3.22
129.85,5.53,2.35,5.53,2.35,-2.35,-2.51,-2.62,3.18,3.18,3.18
131.15,5.54,2.41,5.54,2.41,-2.39,-2.57,-2.63,3.15,3.14,3.13
132.46,5.54,2.45,5.54,2.44,-2.44,-2.62,-2.64,3.10,3.10,3.09
133.79,5.53,2.48,5.53,2.48,-2.47,-2.67,-2.64,3.06,3.06,3.05
135.12,5.51,2.50,5.51,2.50,-2.50,-2.72,-2.64,3.01,3.01,3.01
136.48,5.50,2.53,5.50,2.52,-2.53,-2.76,-2.64,2.97,2.97,2.97
137.84,5.47,2.54,5.48,2.55,-2.54,-2.81,-2.64,2.93,2.93,2.93
139.22,5.45,2.57,5.45,2.56,-2.55,-2.85,-2.63,2.90,2.89,2.88
140.61,5.42,2.58,5.41,2.57,-2.56,-2.90,-2.63,2.86,2.85,2.84
142.02,5.37,2.55,5.38,2.57,-2.56,-2.94,-2.62,2.81,2.82,2.82
143.44,5.35,2.57,5.34,2.56,-2.57,-2.97,-2.60,2.78,2.78,2.78
144.87,5.31,2.57,5.31,2.57,-2.57,-3.01,-2.59,2.74,2.74,2.74
146.32,5.28,2.58,5.28,2.57,-2.57,-3.05,-2.58,2.71,2.71,2.70
147.78,5.25,2.58,5.25,2.58,-2.58,-3.08,-2.57,2.67,2.67,2.67
149.26,5.22,2.58,5.22,2.59,-2.60,-3.11,-2.55,2.62,2.62,2.64
150.75,5.19,2.61,5.19,2.60,-2.62,-3.14,-2.54,2.57,2.57,2.58
152.26,5.18,2.64,5.18,2.64,-2.65,-3.17,-2.53,2.53,2.53,2.54
153.78,5.18,2.67,5.18,2.68,-2.69,-3.19,-2.51,2.49,2.49,2.51
155.32,5.19,2.74,5.19,2.73,-2.73,-3.21,-2.50,2.46,2.46,2.45
156.88,5.20,2.78,5.20,2.78,-2.77,-3.24,-2.49,2.43,2.43,2.42
158.44,5.20,2.83,5.20,2.83,-2.81,-3.25,-2.48,2.39,2.38,2.37
160.03,5.19,2.87,5.19,2.87,-2.85,-3.27,-2.47,2.34,2.34,2.32
161.63,5.17,2.90,5.17,2.90,-2.89,-3.28,-2.47,2.28,2.29,2.27
163.24,5.16,2.93,5.15,2.92,-2.92,-3.30,-2.46,2.24,2.24,2.23
164.88,5.12,2.93,5.13,2.94,-2.94,-3.31,-2.46,2.18,2.19,2.19
166.53,5.10,2.96,5.10,2.96,-2.96,-3.31,-2.46,2.14,2.14,2.14
168.19,5.07,2.98,5.06,2.97,-2.98,-3.32,-2.46,2.09,2.08,2.09
169.87,5.03,2.99,5.04,3.00,-3.00,-3.32,-2.46,2.03,2.04,2.04
171.57,5.01,3.01,5.01,3.01,-3.02,-3.33,-2.46,1.99,2.00,2.00
173.29,4.99,3.05,4.98,3.03,-3.03,-3.33,-2.47,1.96,1.95,1.94
175.02,4.94,3.05,4.94,3.05,-3.05,-3.32,-2.48,1.89,1.90,1.89
176.77,4.90,3.07,4.90,3.07,-3.07,-3.32,-2.49,1.83,1.84,1.83
178.54,4.87,3.09,4.87,3.09,-3.09,-3.31,-2.50,1.78,1.78,1.78
180.32,4.83,3.11,4.83,3.11,-3.11,-3.30,-2.52,1.72,1.73,1.72
182.13,4.80,3.13,4.79,3.12,-3.13,-3.29,-2.54,1.67,1.66,1.67
183.95,4.75,3.14,4.76,3.14,-3.15,-3.28,-2.55,1.60,1.60,1.61
185.79,4.72,3.16,4.72,3.17,-3.18,-3.27,-2.58,1.54,1.54,1.56
187.65,4.70,3.21,4.70,3.20,-3.21,-3.25,-2.60,1.49,1.49,1.49
189.52,4.68,3.24,4.68,3.24,-3.24,-3.24,-2.62,1.44,1.45,1.44
191.42,4.67,3.28,4.66,3.27,-3.26,-3.22,-2.65,1.41,1.40,1.39
193.33,4.64,3.30,4.64,3.30,-3.29,-3.20,-2.68,1.35,1.35,1.34
195.27,4.60,3.31,4.60,3.32,-3.31,-3.18,-2.71,1.29,1.30,1.29
197.22,4.57,3.34,4.57,3.33,-3.33,-3.16,-2.74,1.24,1.24,1.23
199.19,4.53,3.35,4.53,3.35,-3.35,-3.13,-2.78,1.18,1.18,1.18
201.18,4.50,3.37,4.50,3.36,-3.36,-3.11,-2.81,1.14,1.13,1.13
203.19,4.46,3.36,4.46,3.37,-3.38,-3.08,-2.85,1.08,1.08,1.10
205.23,4.43,3.39,4.43,3.38,-3.40,-3.05,-2.88,1.03,1.04,1.04
207.28,4.41,3.39,4.41,3.40,-3.41,-3.03,-2.92,1.00,1.00,1.02
209.35,4.39,3.43,4.39,3.43,-3.42,-3.00,-2.96,0.97,0.97,0.96
211.44,4.37,3.46,4.37,3.45,-3.43,-2.97,-2.99,0.94,0.93,0.91
213.56,4.33,3.46,4.33,3.45,-3.44,-2.94,-3.03,0.89,0.89,0.87
215.69,4.29,3.44,4.29,3.44,-3.44,-2.91,-3.07,0.85,0.84,0.85
217.85,4.24,3.43,4.25,3.44,-3.45,-2.87,-3.10,0.79,0.80,0.81
220.03,4.21,3.44,4.21,3.43,-3.44,-2.84,-3.14,0.77,0.77,0.77
222.23,4.18,3.44,4.18,3.43,-3.44,-2.81,-3.17,0.74,0.74,0.74
224.45,4.14,3.42,4.14,3.42,-3.42,-2.77,-3.20,0.72,0.72,0.72
226.70,4.10,3.41,4.10,3.41,-3.40,-2.74,-3.23,0.70,0.70,0.69
228.96,4.05,3.39,4.06,3.39,-3.38,-2.70,-3.25,0.67,0.68,0.66
231.25,4.02,3.37,4.01,3.36,-3.35,-2.67,-3.28,0.67,0.66,0.65
233.57,3.96,3.33,3.96,3.32,-3.32,-2.63,-3.29,0.64,0.63,0.63
235.90,3.89,3.27,3.90,3.28,-3.28,-2.60,-3.31,0.61,0.62,0.62
238.26,3.85,3.24,3.85,3.24,-3.24,-2.56,-3.32,0.61,0.60,0.61
240.64,3.80,3.20,3.80,3.20,-3.20,-2.53,-3.33,0.60,0.60,0.60
243.05,3.76,3.16,3.76,3.16,-3.16,-2.49,-3.33,0.60,0.60,0.60
245.48,3.71,3.12,3.71,3.11,-3.11,-2.46,-3.33,0.60,0.59,0.59
247.93,3.65,3.06,3.66,3.07,-3.07,-2.42,-3.33,0.58,0.59,0.59
250.41,3.62,3.03,3.61,3.02,-3.03,-2.39,-3.32,0.59,0.59,0.59
252.92,3.57,2.97,3.58,2.98,-2.98,-2.35,-3.30,0.59,0.60,0.60
255.45,3.55,2.94,3.55,2.94,-2.94,-2.31,-3.28,0.61,0.61,0.61
258.00,3.52,2.90,3.51,2.89,-2.89,-2.28,-3.26,0.63,0.62,0.62
260.58,3.47,2.85,3.47,2.85,-2.84,-2.24,-3.23,0.63,0.63,0.62
263.19,3.42,2.79,3.42,2.79,-2.78,-2.21,-3.19,0.64,0.64,0.63
265.82,3.37,2.73,3.37,2.73,-2.73,-2.17,-3.16,0.64,0.64,0.64
268.48,3.33,2.67,3.33,2.67,-2.67,-2.14,-3.11,0.66,0.65,0.66
271.16,3.28,2.60,3.28,2.60,-2.61,-2.10,-3.07,0.67,0.67,0.68
273.87,3.23,2.55,3.23,2.54,-2.54,-2.07,-3.02,0.69,0.69,0.68
276.61,3.19,2.48,3.18,2.48,-2.48,-2.03,-2.97,0.71,0.71,0.71
279.38,3.13,2.42,3.13,2.42,-2.41,-2.00,-2.91,0.72,0.73,0.71
282.17,3.08,2.35,3.08,2.35,-2.34,-1.97,-2.85,0.74,0.74,0.73
284.99,3.02,2.28,3.01,2.28,-2.27,-1.93,-2.79,0.75,0.74,0.74
287.84,2.95,2.20,2.96,2.20,-2.21,-1.90,-2.73,0.74,0.75,0.75
290.72,2.90,2.14,2.90,2.14,-2.14,-1.87,-2.67,0.76,0.76,0.76
293.63,2.86,2.08,2.86,2.08,-2.08,-1.84,-2.60,0.78,0.77,0.78
296.57,2.82,2.02,2.82,2.02,-2.03,-1.81,-2.54,0.79,0.79,0.80
299.53,2.78,1.98,2.78,1.97,-1.98,-1.77,-2.47,0.80,0.80,0.80
302.53,2.74,1.93,2.74,1.93,-1.93,-1.74,-2.41,0.81,0.81,0.81
305.55,2.71,1.88,2.71,1.89,-1.88,-1.71,-2.34,0.83,0.83,0.83
308.61,2.69,1.85,2.69,1.84,-1.84,-1.68,-2.27,0.85,0.85,0.84
311.69,2.66,1.81,2.66,1.80,-1.79,-1.65,-2.20,0.87,0.87,0.85
314.81,2.63,1.75,2.63,1.76,-1.75,-1.62,-2.14,0.88,0.88,0.88
317.96,2.59,1.72,2.59,1.71,-1.71,-1.60,-2.07,0.88,0.88,0.87
321.14,2.55,1.67,2.55,1.67,-1.67,-1.57,-2.01,0.88,0.88,0.88
324.35,2.51,1.63,2.51,1.63,-1.63,-1.54,-1.94,0.88,0.88,0.88
327.59,2.47,1.58,2.48,1.59,-1.60,-1.51,-1.88,0.87,0.88,0.89
330.87,2.45,1.56,2.45,1.56,-1.57,-1.48,-1.81,0.88,0.88,0.89
334.18,2.43,1.54,2.43,1.53,-1.53,-1.46,-1.75,0.90,0.90,0.89
337.52,2.41,1.51,2.41,1.51,-1.50,-1.43,-1.69,0.91,0.91,0.90
340.90,2.39,1.49,2.38,1.48,-1.47,-1.41,-1.63,0.92,0.91,0.90
344.30,2.35,1.45,2.35,1.45,-1.44,-1.38,-1.57,0.91,0.91,0.90
347.75,2.31,1.41,2.31,1.41,-1.40,-1.35,-1.51,0.91,0.91,0.90
351.23,2.27,1.37,2.27,1.37,-1.37,-1.33,-1.45,0.90,0.90,0.90
354.74,2.23,1.33,2.23,1.33,-1.34,-1.31,-1.40,0.89,0.89,0.90
358.28,2.19,1.31,2.19,1.30,-1.31,-1.28,-1.34,0.88,0.88,0.88
361.87,2.15,1.27,2.15,1.27,-1.28,-1.26,-1.29,0.87,0.87,0.88
365.49,2.13,1.25,2.13,1.25,-1.26,-1.24,-1.23,0.87,0.87,0.88
369.14,2.11,1.24,2.11,1.24,-1.24,-1.21,-1.18,0.87,0.88,0.87
372.83,2.10,1.23,2.09,1.22,-1.21,-1.19,-1.13,0.89,0.88,0.87
376.56,2.06,1.20,2.06,1.20,-1.19,-1.17,-1.08,0.87,0.88,0.86
380.33,2.02,1.17,2.02,1.17,-1.16,-1.15,-1.03,0.86,0.86,0.85
384.13,1.98,1.14,1.98,1.14,-1.13,-1.13,-0.99,0.85,0.84,0.84
387.97,1.93,1.10,1.93,1.10,-1.11,-1.11,-0.94,0.82,0.83,0.83
391.85,1.89,1.07,1.89,1.06,-1.08,-1.09,-0.89,0.81,0.82,0.82
395.77,1.86,1.03,1.86,1.03,-1.05,-1.07,-0.85,0.81,0.81,0.83
399.73,1.83,1.01,1.83,1.01,-1.01,-1.05,-0.81,0.82,0.82,0.82
403.72,1.80,0.99,1.80,0.99,-0.98,-1.03,-0.76,0.82,0.82,0.81
407.76,1.77,0.97,1.76,0.96,-0.95,-1.01,-0.72,0.82,0.82,0.80
411.84,1.72,0.91,1.72,0.92,-0.91,-0.99,-0.68,0.81,0.81,0.81
415.96,1.67,0.88,1.67,0.87,-0.87,-0.97,-0.64,0.80,0.80,0.79
420.12,1.62,0.83,1.62,0.83,-0.83,-0.95,-0.60,0.79,0.79,0.79
424.32,1.58,0.79,1.58,0.79,-0.79,-0.94,-0.56,0.79,0.79,0.79
428.56,1.53,0.75,1.53,0.74,-0.74,-0.92,-0.53,0.79,0.79,0.78
432.85,1.48,0.70,1.48,0.69,-0.69,-0.90,-0.49,0.79,0.78,0.78
437.18,1.42,0.64,1.42,0.64,-0.64,-0.89,-0.45,0.78,0.78,0.78
441.55,1.37,0.58,1.37,0.59,-0.59,-0.87,-0.42,0.78,0.79,0.79
445.96,1.33,0.54,1.33,0.54,-0.53,-0.86,-0.39,0.80,0.79,0.79
450.42,1.28,0.50,1.28,0.49,-0.48,-0.84,-0.35,0.80,0.80,0.78
454.93,1.23,0.44,1.23,0.44,-0.43,-0.83,-0.32,0.80,0.80,0.79
459.48,1.17,0.38,1.17,0.38,-0.38,-0.81,-0.29,0.79,0.79,0.79
464.07,1.12,0.32,1.13,0.32,-0.34,-0.80,-0.26,0.78,0.79,0.80
468.71,1.09,0.28,1.09,0.28,-0.30,-0.78,-0.23,0.79,0.79,0.81
473.40,1.06,0.26,1.06,0.25,-0.26,-0.77,-0.20,0.80,0.80,0.80
478.13,1.04,0.23,1.04,0.23,-0.23,-0.76,-0.17,0.81,0.82,0.81
482.91,1.03,0.22,1.02,0.21,-0.20,-0.74,-0.15,0.83,0.83,0.81
487.74,1.00,0.18,1.00,0.18,-0.17,-0.73,-0.12,0.83,0.83,0.82
492.62,0.97,0.14,0.97,0.14,-0.14,-0.72,-0.10,0.83,0.83,0.83
497.55,0.94,0.11,0.94,0.10,-0.11,-0.71,-0.07,0.83,0.83,0.83
502.52,0.91,0.07,0.91,0.07,-0.08,-0.69,-0.05,0.83,0.83,0.84
507.55,0.88,0.04,0.88,0.04,-0.04,-0.68,-0.03,0.84,0.84,0.84
512.62,0.86,0.02,0.86,0.01,-0.01,-0.67,-0.00,0.85,0.85,0.84
