frequency,raw,error,smoothed,error_smoothed,equalization,parametric_eq,fixed_band_eq,equalized_raw,equalized_smoothed,target
20.00,-13.30,-15.14,-13.30,-15.14,15.14,14.05,5.02,1.84,1.84,1.84
20.20,-13.18,-15.02,-13.18,-15.02,15.02,14.10,5.14,1.84,1.84,1.84
20.40,-13.06,-14.90,-13.06,-14.90,14.90,14.13,5.27,1.84,1.84,1.84
20.61,-12.94,-14.78,-12.94,-14.78,14.78,14.16,5.40,1.84,1.84,1.84
20.81,-12.82,-14.66,-12.82,-14.66,14.66,14.17,5.53,1.84,1.84,1.84
21.02,-12.71,-14.55,-12.71,-14.54,14.53,14.18,5.67,1.82,1.83,1.84
21.23,-12.58,-14.40,-12.59,-14.41,14.41,14.18,5.82,1.82,1.82,1.82
21.44,-12.47,-14.28,-12.47,-14.28,14.27,14.18,5.96,1.80,1.81,1.81
21.66,-12.35,-14.14,-12.35,-14.14,14.14,14.16,6.11,1.79,1.79,1.79
21.87,-12.23,-14.00,-12.23,-14.00,14.00,14.13,6.27,1.77,1.77,1.77
22.09,-12.11,-13.87,-12.11,-13.86,13.86,14.09,6.42,1.75,1.75,1.76
22.31,-11.99,-13.72,-11.99,-13.72,13.72,14.04,6.59,1.73,1.73,1.73
22.54,-11.87,-13.58,-11.87,-13.58,13.57,13.99,6.75,1.70,1.71,1.71
22.76,-11.74,-13.43,-11.75,-13.43,13.43,13.92,6.92,1.69,1.68,1.69
22.99,-11.63,-13.29,-11.63,-13.28,13.28,13.85,7.10,1.65,1.66,1.66
23.22,-11.51,-13.14,-11.51,-13.14,13.14,13.76,7.28,1.63,1.63,1.63
23.45,-11.38,-12.98,-11.39,-12.99,13.00,13.67,7.47,1.62,1.61,1.60
23.69,-11.27,-12.86,-11.27,-12.85,12.86,13.56,7.66,1.59,1.59,1.59
23.92,-11.15,-12.72,-11.15,-12.72,12.72,13.45,7.85,1.57,1.57,1.57
24.16,-11.03,-12.59,-11.04,-12.59,12.59,13.34,8.05,1.56,1.55,1.56
24.40,-10.93,-12.47,-10.92,-12.46,12.46,13.21,8.25,1.53,1.54,1.54
24.65,-10.81,-12.33,-10.81,-12.33,12.33,13.08,8.46,1.52,1.52,1.52
24.89,-10.70,-12.20,-10.70,-12.20,12.20,12.94,8.67,1.50,1.50,1.50
25.14,-10.59,-12.08,-10.59,-12.08,12.08,12.79,8.89,1.49,1.49,1.49
25.39,-10.48,-11.95,-10.48,-11.95,11.95,12.64,9.11,1.47,1.47,1.47
25.65,-10.37,-11.83,-10.37,-11.82,11.82,12.48,9.33,1.45,1.45,1.46
25.91,-10.26,-11.69,-10.26,-11.70,11.69,12.32,9.56,1.43,1.43,1.43
26.16,-10.15,-11.57,-10.15,-11.57,11.57,12.15,9.79,1.42,1.42,1.42
26.43,-10.03,-11.44,-10.04,-11.44,11.44,11.98,10.02,1.40,1.40,1.41
26.69,-9.92,-11.30,-9.92,-11.30,11.31,11.81,10.26,1.39,1.39,1.38
26.96,-9.80,-11.17,-9.80,-11.17,11.17,11.63,10.49,1.37,1.37,1.37
27.23,-9.68,-11.04,-9.68,-11.04,11.04,11.45,10.72,1.36,1.36,1.36
27.50,-9.56,-10.91,-9.56,-10.91,10.90,11.27,10.95,1.34,1.34,1.35
27.77,-9.44,-10.77,-9.44,-10.77,10.76,11.08,11.17,1.32,1.33,1.33
28.05,-9.31,-10.63,-9.31,-10.63,10.62,10.90,11.39,1.31,1.31,1.32
28.33,-9.18,-10.48,-9.18,-10.48,10.48,10.71,11.60,1.30,1.30,1.30
28.62,-9.05,-10.34,-9.06,-10.34,10.34,10.52,11.80,1.29,1.29,1.29
28.90,-8.93,-10.20,-8.93,-10.20,10.20,10.33,11.98,1.27,1.27,1.27
29.19,-8.80,-10.05,-8.80,-10.05,10.06,10.14,12.15,1.26,1.26,1.25
29.48,-8.66,-9.91,-8.66,-9.91,9.91,9.94,12.30,1.25,1.25,1.25
29.78,-8.53,-9.77,-8.53,-9.77,9.77,9.75,12.42,1.24,1.24,1.24
30.08,-8.40,-9.63,-8.40,-9.63,9.63,9.56,12.52,1.22,1.22,1.23
30.38,-8.28,-9.49,-8.28,-9.49,9.48,9.36,12.59,1.20,1.21,1.21
30.68,-8.14,-9.34,-8.15,-9.34,9.34,9.17,12.62,1.20,1.19,1.20
30.99,-8.01,-9.18,-8.01,-9.19,9.19,8.98,12.63,1.18,1.18,1.17
31.30,-7.88,-9.04,-7.88,-9.04,9.04,8.78,12.60,1.16,1.16,1.16
31.61,-7.74,-8.89,-7.75,-8.89,8.89,8.59,12.54,1.15,1.14,1.15
31.93,-7.61,-8.74,-7.61,-8.74,8.74,8.40,12.45,1.12,1.12,1.13
32.24,-7.48,-8.58,-7.48,-8.58,8.58,8.21,12.33,1.10,1.10,1.10
32.57,-7.34,-8.42,-7.34,-8.42,8.43,8.02,12.17,1.09,1.08,1.08
32.89,-7.21,-8.28,-7.21,-8.27,8.27,7.83,11.99,1.06,1.06,1.07
33.22,-7.07,-8.11,-7.07,-8.12,8.12,7.64,11.78,1.05,1.04,1.04
33.55,-6.94,-7.97,-6.94,-7.96,7.96,7.45,11.56,1.02,1.02,1.03
33.89,-6.80,-7.80,-6.80,-7.80,7.80,7.26,11.31,1.00,1.00,1.00
34.23,-6.66,-7.64,-6.66,-7.64,7.64,7.07,11.05,0.98,0.98,0.98
34.57,-6.52,-7.48,-6.52,-7.48,7.48,6.89,10.78,0.96,0.96,0.96
34.92,-6.38,-7.32,-6.38,-7.32,7.32,6.70,10.50,0.94,0.94,0.94
35.27,-6.24,-7.16,-6.24,-7.16,7.16,6.52,10.21,0.91,0.92,0.92
35.62,-6.09,-6.99,-6.09,-6.99,6.99,6.34,9.91,0.90,0.90,0.90
35.97,-5.95,-6.83,-5.95,-6.83,6.83,6.16,9.61,0.88,0.88,0.88
36.33,-5.80,-6.66,-5.80,-6.66,6.66,5.98,9.30,0.86,0.86,0.86
36.70,-5.66,-6.50,-5.66,-6.50,6.50,5.80,9.00,0.83,0.84,0.84
37.06,-5.51,-6.33,-5.51,-6.33,6.33,5.62,8.69,0.82,0.82,0.82
37.43,-5.36,-6.16,-5.36,-6.16,6.16,5.44,8.39,0.80,0.79,0.80
37.81,-5.21,-5.99,-5.21,-5.99,5.98,5.27,8.09,0.77,0.77,0.78
38.19,-5.05,-5.80,-5.06,-5.81,5.81,5.09,7.79,0.76,0.75,0.75
38.57,-4.90,-5.64,-4.90,-5.63,5.63,4.92,7.49,0.73,0.73,0.74
38.95,-4.74,-5.45,-4.74,-5.45,5.45,4.75,7.19,0.71,0.71,0.71
39.34,-4.58,-5.27,-4.58,-5.27,5.27,4.58,6.89,0.69,0.69,0.69
39.74,-4.41,-5.08,-4.42,-5.09,5.09,4.41,6.60,0.67,0.67,0.67
40.14,-4.25,-4.91,-4.25,-4.91,4.90,4.24,6.31,0.65,0.65,0.66
40.54,-4.08,-4.72,-4.08,-4.72,4.72,4.07,6.03,0.64,0.64,0.64
40.94,-3.91,-4.53,-3.92,-4.53,4.53,3.91,5.75,0.62,0.62,0.62
41.35,-3.75,-4.34,-3.75,-4.34,4.35,3.74,5.47,0.60,0.60,0.59
41.76,-3.58,-4.17,-3.58,-4.16,4.17,3.58,5.19,0.59,0.59,0.59
42.18,-3.41,-3.98,-3.41,-3.98,3.98,3.42,4.92,0.57,0.57,0.57
42.60,-3.25,-3.80,-3.25,-3.80,3.80,3.25,4.64,0.55,0.55,0.55
43.03,-3.08,-3.62,-3.08,-3.61,3.61,3.10,4.38,0.53,0.53,0.54
43.46,-2.91,-3.42,-2.91,-3.42,3.42,2.94,4.11,0.51,0.51,0.51
43.90,-2.74,-3.23,-2.74,-3.23,3.23,2.78,3.84,0.49,0.49,0.49
44.33,-2.57,-3.04,-2.57,-3.04,3.04,2.62,3.58,0.47,0.47,0.47
44.78,-2.40,-2.85,-2.40,-2.85,2.85,2.47,3.32,0.45,0.44,0.45
45.23,-2.23,-2.65,-2.23,-2.65,2.66,2.32,3.07,0.42,0.43,0.42
45.68,-2.06,-2.46,-2.06,-2.46,2.47,2.16,2.81,0.41,0.41,0.40
46.13,-1.88,-2.27,-1.89,-2.28,2.28,2.01,2.56,0.40,0.39,0.39
46.60,-1.72,-2.10,-1.72,-2.09,2.09,1.86,2.30,0.37,0.38,0.38
47.06,-1.55,-1.91,-1.55,-1.91,1.91,1.72,2.05,0.36,0.36,0.36
47.53,-1.38,-1.72,-1.39,-1.73,1.72,1.57,1.80,0.34,0.33,0.34
48.01,-1.22,-1.55,-1.22,-1.54,1.53,1.42,1.56,0.31,0.32,0.33
48.49,-1.05,-1.35,-1.05,-1.35,1.35,1.28,1.31,0.29,0.29,0.30
48.97,-0.89,-1.16,-0.89,-1.16,1.16,1.13,1.07,0.27,0.27,0.27
49.46,-0.73,-0.97,-0.73,-0.97,0.98,0.99,0.83,0.25,0.25,0.24
49.96,-0.57,-0.78,-0.57,-0.79,0.79,0.85,0.59,0.22,0.22,0.21
50.46,-0.41,-0.61,-0.41,-0.61,0.61,0.71,0.35,0.20,0.20,0.20
50.96,-0.26,-0.44,-0.26,-0.43,0.43,0.57,0.11,0.17,0.18,0.18
51.47,-0.10,-0.25,-0.10,-0.26,0.26,0.44,-0.12,0.16,0.15,0.15
51.99,0.05,-0.08,0.04,-0.09,0.08,0.30,-0.35,0.13,0.13,0.13
52.51,0.19,0.08,0.19,0.09,-0.09,0.16,-0.58,0.10,0.10,0.11
53.03,0.34,0.25,0.34,0.25,-0.26,0.03,-0.80,0.08,0.08,0.09
53.56,0.49,0.43,0.49,0.43,-0.43,-0.10,-1.02,0.06,0.06,0.06
54.10,0.64,0.60,0.63,0.60,-0.59,-0.23,-1.24,0.04,0.04,0.04
54.64,0.77,0.76,0.77,0.76,-0.76,-0.36,-1.45,0.01,0.01,0.01
55.18,0.91,0.92,0.91,0.92,-0.92,-0.49,-1.66,-0.01,-0.01,-0.01
55.74,1.04,1.08,1.04,1.08,-1.08,-0.62,-1.86,-0.04,-0.04,-0.04
56.29,1.17,1.23,1.17,1.24,-1.24,-0.74,-2.05,-0.07,-0.07,-0.06
56.86,1.31,1.40,1.30,1.39,-1.39,-0.87,-2.24,-0.08,-0.09,-0.09
57.42,1.43,1.54,1.43,1.54,-1.54,-0.99,-2.42,-0.11,-0.11,-0.11
58.00,1.56,1.69,1.56,1.69,-1.69,-1.11,-2.60,-0.13,-0.13,-0.13
58.58,1.68,1.84,1.68,1.84,-1.83,-1.24,-2.76,-0.16,-0.16,-0.16
59.16,1.80,1.98,1.80,1.98,-1.98,-1.36,-2.92,-0.18,-0.18,-0.18
59.76,1.91,2.11,1.91,2.12,-2.12,-1.47,-3.07,-0.21,-0.21,-0.20
60.35,2.03,2.26,2.02,2.25,-2.26,-1.59,-3.21,-0.23,-0.24,-0.23
60.96,2.13,2.38,2.13,2.39,-2.40,-1.71,-3.34,-0.27,-0.27,-0.25
61.57,2.24,2.53,2.24,2.53,-2.53,-1.82,-3.47,-0.29,-0.29,-0.29
62.18,2.35,2.67,2.35,2.67,-2.66,-1.94,-3.58,-0.32,-0.32,-0.32
62.80,2.45,2.80,2.45,2.80,-2.79,-2.05,-3.68,-0.34,-0.35,-0.35
63.43,2.55,2.93,2.54,2.93,-2.92,-2.16,-3.77,-0.37,-0.38,-0.38
64.07,2.63,3.04,2.64,3.05,-3.04,-2.27,-3.85,-0.41,-0.40,-0.41
64.71,2.73,3.16,2.73,3.16,-3.16,-2.38,-3.93,-0.43,-0.43,-0.43
65.35,2.82,3.27,2.81,3.27,-3.27,-2.48,-3.99,-0.45,-0.46,-0.45
66.01,2.90,3.37,2.90,3.38,-3.38,-2.59,-4.05,-0.48,-0.48,-0.47
66.67,2.99,3.49,2.99,3.48,-3.49,-2.69,-4.10,-0.50,-0.50,-0.50
67.33,3.07,3.59,3.07,3.59,-3.59,-2.80,-4.14,-0.52,-0.52,-0.52
68.01,3.14,3.69,3.14,3.69,-3.69,-2.90,-4.17,-0.55,-0.55,-0.55
68.69,3.22,3.79,3.21,3.79,-3.79,-3.00,-4.20,-0.57,-0.57,-0.57
69.37,3.28,3.88,3.28,3.88,-3.88,-3.10,-4.23,-0.60,-0.60,-0.60
70.07,3.35,3.98,3.35,3.98,-3.97,-3.20,-4.25,-0.63,-0.63,-0.63
70.77,3.41,4.06,3.41,4.06,-4.06,-3.30,-4.26,-0.66,-0.66,-0.65
71.48,3.47,4.15,3.47,4.15,-4.15,-3.39,-4.27,-0.68,-0.68,-0.68
72.19,3.52,4.23,3.52,4.24,-4.24,-3.49,-4.28,-0.72,-0.71,-0.71
72.91,3.58,4.33,3.57,4.32,-4.32,-3.58,-4.29,-0.74,-0.75,-0.75
73.64,3.62,4.40,3.62,4.40,-4.40,-3.67,-4.30,-0.78,-0.78,-0.78
74.38,3.66,4.47,3.66,4.48,-4.48,-3.76,-4.30,-0.82,-0.82,-0.81
75.12,3.71,4.57,3.70,4.56,-4.56,-3.85,-4.31,-0.85,-0.85,-0.86
75.87,3.74,4.63,3.74,4.63,-4.63,-3.94,-4.31,-0.89,-0.89,-0.89
76.63,3.78,4.70,3.77,4.70,-4.70,-4.02,-4.32,-0.92,-0.93,-0.92
77.40,3.80,4.76,3.80,4.77,-4.77,-4.11,-4.32,-0.97,-0.97,-0.96
78.17,3.83,4.85,3.83,4.83,-4.83,-4.19,-4.33,-1.00,-1.01,-1.02
78.95,3.85,4.89,3.85,4.90,-4.90,-4.28,-4.34,-1.05,-1.05,-1.04
79.74,3.87,4.95,3.87,4.95,-4.96,-4.36,-4.36,-1.09,-1.09,-1.08
80.54,3.88,5.01,3.88,5.01,-5.02,-4.44,-4.37,-1.14,-1.13,-1.13
81.35,3.90,5.07,3.90,5.07,-5.07,-4.52,-4.39,-1.17,-1.18,-1.17
82.16,3.91,5.13,3.91,5.13,-5.13,-4.59,-4.41,-1.22,-1.22,-1.22
82.98,3.92,5.18,3.92,5.18,-5.18,-4.67,-4.43,-1.26,-1.26,-1.26
83.81,3.92,5.24,3.92,5.23,-5.23,-4.74,-4.46,-1.31,-1.31,-1.32
84.65,3.91,5.27,3.92,5.28,-5.28,-4.82,-4.49,-1.37,-1.36,-1.36
85.50,3.92,5.32,3.91,5.32,-5.32,-4.89,-4.53,-1.40,-1.41,-1.40
86.35,3.91,5.36,3.91,5.36,-5.36,-4.96,-4.56,-1.46,-1.46,-1.45
87.22,3.90,5.40,3.90,5.40,-5.40,-5.03,-4.61,-1.51,-1.50,-1.50
88.09,3.89,5.45,3.89,5.44,-5.44,-5.10,-4.65,-1.55,-1.55,-1.56
88.97,3.88,5.48,3.88,5.48,-5.48,-5.17,-4.70,-1.60,-1.60,-1.60
89.86,3.86,5.51,3.86,5.52,-5.51,-5.23,-4.76,-1.65,-1.65,-1.65
90.76,3.84,5.55,3.84,5.55,-5.55,-5.30,-4.81,-1.71,-1.71,-1.71
91.66,3.82,5.58,3.82,5.58,-5.58,-5.36,-4.87,-1.76,-1.76,-1.76
92.58,3.79,5.61,3.79,5.61,-5.61,-5.42,-4.94,-1.82,-1.81,-1.82
93.51,3.77,5.63,3.77,5.63,-5.64,-5.48,-5.01,-1.87,-1.87,-1.86
94.44,3.75,5.66,3.74,5.66,-5.67,-5.54,-5.08,-1.92,-1.92,-1.91
95.39,3.72,5.69,3.72,5.69,-5.69,-5.60,-5.16,-1.98,-1.98,-1.97
96.34,3.69,5.73,3.69,5.72,-5.72,-5.65,-5.24,-2.04,-2.03,-2.04
97.30,3.66,5.75,3.66,5.76,-5.75,-5.71,-5.32,-2.10,-2.09,-2.09
98.28,3.64,5.79,3.63,5.79,-5.79,-5.76,-5.41,-2.15,-2.15,-2.15
99.26,3.60,5.82,3.60,5.81,-5.82,-5.82,-5.50,-2.22,-2.21,-2.22
100.25,3.57,5.84,3.57,5.84,-5.85,-5.87,-5.59,-2.28,-2.28,-2.27
101.25,3.54,5.87,3.54,5.88,-5.88,-5.92,-5.68,-2.34,-2.34,-2.33
102.27,3.51,5.91,3.51,5.91,-5.91,-5.96,-5.78,-2.40,-2.40,-2.40
103.29,3.48,5.95,3.48,5.94,-5.94,-6.01,-5.88,-2.46,-2.46,-2.47
104.32,3.45,5.97,3.44,5.97,-5.97,-6.06,-5.98,-2.52,-2.52,-2.52
105.37,3.41,5.99,3.41,5.99,-6.00,-6.10,-6.08,-2.59,-2.59,-2.58
106.42,3.37,6.02,3.37,6.02,-6.03,-6.15,-6.18,-2.66,-2.66,-2.65
107.48,3.34,6.06,3.34,6.06,-6.06,-6.19,-6.28,-2.72,-2.72,-2.72
108.56,3.31,6.10,3.31,6.10,-6.09,-6.23,-6.38,-2.79,-2.79,-2.79
109.64,3.28,6.13,3.28,6.13,-6.13,-6.27,-6.47,-2.85,-2.85,-2.85
110.74,3.25,6.16,3.24,6.16,-6.16,-6.31,-6.57,-2.91,-2.92,-2.91
111.85,3.21,6.19,3.21,6.19,-6.20,-6.35,-6.66,-2.99,-2.99,-2.98
112.97,3.17,6.23,3.17,6.23,-6.23,-6.38,-6.75,-3.06,-3.06,-3.06
114.10,3.14,6.26,3.14,6.26,-6.26,-6.42,-6.84,-3.13,-3.13,-3.12
115.24,3.11,6.30,3.11,6.30,-6.30,-6.45,-6.92,-3.19,-3.19,-3.19
116.39,3.07,6.33,3.07,6.33,-6.33,-6.48,-6.99,-3.26,-3.26,-3.26
117.55,3.04,6.37,3.04,6.36,-6.36,-6.51,-7.06,-3.32,-3.33,-3.33
118.73,3.00,6.39,3.00,6.39,-6.39,-6.54,-7.12,-3.39,-3.39,-3.39
119.92,2.96,6.41,2.96,6.42,-6.41,-6.57,-7.17,-3.46,-3.45,-3.45
121.12,2.93,6.44,2.93,6.44,-6.44,-6.60,-7.22,-3.51,-3.51,-3.51
122.33,2.89,6.47,2.89,6.46,-6.46,-6.63,-7.25,-3.57,-3.57,-3.58
123.55,2.85,6.48,2.85,6.48,-6.48,-6.65,-7.28,-3.63,-3.63,-3.63
124.79,2.81,6.50,2.81,6.50,-6.50,-6.67,-7.30,-3.70,-3.69,-3.69
126.03,2.78,6.52,2.77,6.52,-6.53,-6.70,-7.31,-3.75,-3.75,-3.74
127.29,2.74,6.54,2.74,6.54,-6.55,-6.72,-7.31,-3.81,-3.81,-3.80
128.57,2.70,6.57,2.70,6.57,-6.57,-6.74,-7.31,-3.87,-3.87,-3.87
129.85,2.67,6.59,2.67,6.59,-6.59,-6.76,-7.29,-3.92,-3.92,-3.92
131.15,2.63,6.60,2.63,6.61,-6.60,-6.78,-7.27,-3.97,-3.97,-3.97
132.46,2.60,6.63,2.60,6.62,-6.62,-6.79,-7.23,-4.02,-4.02,-4.03
133.79,2.56,6.63,2.56,6.63,-6.63,-6.81,-7.20,-4.07,-4.08,-4.07
135.12,2.52,6.65,2.52,6.64,-6.64,-6.82,-7.15,-4.13,-4.12,-4.13
136.48,2.48,6.64,2.48,6.65,-6.65,-6.84,-7.10,-4.17,-4.17,-4.16
137.84,2.45,6.65,2.45,6.66,-6.66,-6.85,-7.04,-4.21,-4.21,-4.20
139.22,2.42,6.67,2.42,6.66,-6.66,-6.86,-6.98,-4.24,-4.24,-4.25
140.61,2.38,6.67,2.38,6.67,-6.66,-6.87,-6.92,-4.28,-4.28,-4.29
142.02,2.35,6.66,2.35,6.66,-6.66,-6.88,-6.85,-4.31,-4.32,-4.31
143.44,2.31,6.65,2.31,6.66,-6.66,-6.89,-6.78,-4.35,-4.35,-4.34
144.87,2.28,6.66,2.28,6.65,-6.66,-6.90,-6.71,-4.38,-4.38,-4.38
146.32,2.25,6.66,2.25,6.65,-6.66,-6.90,-6.64,-4.41,-4.41,-4.41
147.78,2.21,6.64,2.21,6.65,-6.65,-6.91,-6.57,-4.44,-4.44,-4.43
149.26,2.19,6.65,2.18,6.65,-6.65,-6.91,-6.50,-4.46,-4.46,-4.46
150.75,2.15,6.65,2.15,6.64,-6.64,-6.91,-6.43,-4.49,-4.49,-4.50
152.26,2.12,6.64,2.12,6.64,-6.64,-6.91,-6.36,-4.52,-4.52,-4.52
153.78,2.08,6.63,2.08,6.63,-6.63,-6.92,-6.29,-4.55,-4.55,-4.55
155.32,2.05,6.62,2.05,6.62,-6.63,-6.91,-6.22,-4.58,-4.58,-4.57
156.88,2.02,6.62,2.02,6.62,-6.62,-6.91,-6.16,-4.60,-4.61,-4.60
158.44,1.98,6.61,1.98,6.62,-6.62,-6.91,-6.10,-4.64,-4.63,-4.63
160.03,1.96,6.62,1.95,6.61,-6.61,-6.91,-6.04,-4.65,-4.66,-4.66
161.63,1.92,6.61,1.92,6.61,-6.61,-6.90,-5.99,-4.69,-4.69,-4.69
163.24,1.89,6.61,1.89,6.61,-6.60,-6.90,-5.94,-4.72,-4.71,-4.72
164.88,1.86,6.60,1.86,6.60,-6.60,-6.89,-5.89,-4.74,-4.74,-4.74
166.53,1.83,6.59,1.83,6.60,-6.60,-6.89,-5.85,-4.77,-4.77,-4.76
168.19,1.80,6.60,1.80,6.59,-6.59,-6.88,-5.81,-4.79,-4.80,-4.80
169.87,1.76,6.59,1.76,6.59,-6.59,-6.87,-5.78,-4.83,-4.83,-4.83
171.57,1.73,6.59,1.73,6.58,-6.59,-6.86,-5.75,-4.86,-4.86,-4.86
173.29,1.69,6.57,1.69,6.58,-6.59,-6.85,-5.72,-4.90,-4.89,-4.88
175.02,1.66,6.58,1.66,6.58,-6.58,-6.84,-5.70,-4.93,-4.93,-4.92
176.77,1.63,6.59,1.63,6.59,-6.59,-6.83,-5.69,-4.96,-4.96,-4.96
178.54,1.59,6.59,1.59,6.59,-6.59,-6.81,-5.67,-5.00,-4.99,-5.00
180.32,1.56,6.59,1.56,6.59,-6.59,-6.80,-5.67,-5.03,-5.03,-5.03
182.13,1.52,6.58,1.52,6.58,-6.59,-6.78,-5.66,-5.07,-5.07,-5.06
183.95,1.48,6.58,1.48,6.59,-6.59,-6.77,-5.66,-5.11,-5.10,-5.10
185.79,1.45,6.59,1.44,6.59,-6.58,-6.75,-5.67,-5.13,-5.14,-5.14
187.65,1.41,6.59,1.41,6.58,-6.58,-6.74,-5.68,-5.17,-5.17,-5.18
189.52,1.36,6.57,1.37,6.57,-6.57,-6.72,-5.69,-5.21,-5.20,-5.21
191.42,1.33,6.56,1.33,6.56,-6.56,-6.70,-5.71,-5.23,-5.24,-5.23
193.33,1.29,6.54,1.29,6.54,-6.55,-6.68,-5.73,-5.26,-5.27,-5.25
195.27,1.25,6.53,1.25,6.53,-6.54,-6.66,-5.75,-5.29,-5.29,-5.28
197.22,1.21,6.52,1.21,6.53,-6.52,-6.64,-5.78,-5.32,-5.31,-5.31
199.19,1.17,6.53,1.17,6.52,-6.51,-6.62,-5.81,-5.34,-5.34,-5.36
201.18,1.13,6.50,1.13,6.50,-6.49,-6.60,-5.84,-5.36,-5.37,-5.37
203.19,1.08,6.47,1.08,6.48,-6.47,-6.57,-5.88,-5.40,-5.39,-5.39
205.23,1.04,6.45,1.04,6.45,-6.45,-6.55,-5.92,-5.42,-5.42,-5.41
207.28,1.00,6.42,1.00,6.43,-6.43,-6.52,-5.96,-5.43,-5.43,-5.42
209.35,0.96,6.41,0.96,6.41,-6.41,-6.50,-6.00,-5.45,-5.45,-5.45
211.44,0.93,6.40,0.92,6.39,-6.39,-6.47,-6.04,-5.46,-5.47,-5.47
213.56,0.88,6.37,0.88,6.37,-6.37,-6.45,-6.08,-5.49,-5.49,-5.49
215.69,0.84,6.33,0.84,6.34,-6.35,-6.42,-6.13,-5.51,-5.50,-5.49
217.85,0.81,6.31,0.81,6.32,-6.32,-6.39,-6.17,-5.52,-5.52,-5.50
220.03,0.78,6.31,0.78,6.30,-6.30,-6.37,-6.21,-5.52,-5.52,-5.53
222.23,0.75,6.29,0.75,6.28,-6.28,-6.34,-6.25,-5.53,-5.53,-5.54
224.45,0.72,6.25,0.72,6.26,-6.25,-6.31,-6.29,-5.53,-5.53,-5.53
226.70,0.68,6.22,0.69,6.23,-6.22,-6.28,-6.32,-5.55,-5.54,-5.54
228.96,0.66,6.20,0.66,6.19,-6.20,-6.25,-6.35,-5.54,-5.54,-5.54
231.25,0.63,6.16,0.63,6.16,-6.16,-6.22,-6.38,-5.54,-5.54,-5.53
233.57,0.60,6.12,0.60,6.13,-6.13,-6.19,-6.40,-5.53,-5.53,-5.52
235.90,0.57,6.09,0.57,6.09,-6.09,-6.15,-6.42,-5.53,-5.52,-5.52
238.26,0.55,6.07,0.55,6.06,-6.05,-6.12,-6.43,-5.51,-5.51,-5.52
240.64,0.52,6.02,0.52,6.02,-6.01,-6.09,-6.44,-5.49,-5.49,-5.50
243.05,0.49,5.97,0.49,5.97,-5.97,-6.06,-6.43,-5.48,-5.48,-5.48
245.48,0.45,5.91,0.45,5.92,-5.92,-6.02,-6.43,-5.47,-5.47,-5.46
247.93,0.42,5.87,0.42,5.87,-5.87,-5.99,-6.41,-5.45,-5.45,-5.45
250.41,0.39,5.83,0.39,5.82,-5.82,-5.95,-6.39,-5.43,-5.43,-5.44
252.92,0.36,5.76,0.36,5.76,-5.77,-5.92,-6.36,-5.41,-5.41,-5.40
255.45,0.32,5.70,0.33,5.71,-5.71,-5.88,-6.33,-5.39,-5.39,-5.38
258.00,0.30,5.66,0.29,5.65,-5.66,-5.85,-6.28,-5.36,-5.37,-5.36
260.58,0.27,5.61,0.27,5.61,-5.61,-5.81,-6.23,-5.34,-5.35,-5.34
263.19,0.24,5.56,0.24,5.56,-5.56,-5.78,-6.18,-5.33,-5.32,-5.32
265.82,0.22,5.52,0.22,5.52,-5.52,-5.74,-6.11,-5.30,-5.30,-5.30
268.48,0.20,5.47,0.20,5.47,-5.47,-5.70,-6.05,-5.27,-5.27,-5.27
271.16,0.18,5.42,0.18,5.42,-5.42,-5.66,-5.97,-5.24,-5.25,-5.24
273.87,0.15,5.37,0.15,5.37,-5.37,-5.63,-5.89,-5.22,-5.22,-5.22
276.61,0.13,5.32,0.13,5.32,-5.32,-5.59,-5.81,-5.19,-5.19,-5.19
279.38,0.10,5.27,0.10,5.27,-5.26,-5.55,-5.73,-5.17,-5.17,-5.17
282.17,0.06,5.21,0.06,5.21,-5.20,-5.51,-5.64,-5.15,-5.14,-5.15
284.99,0.02,5.14,0.02,5.14,-5.14,-5.47,-5.54,-5.12,-5.12,-5.12
287.84,-0.02,5.08,-0.02,5.08,-5.07,-5.43,-5.45,-5.09,-5.09,-5.10
290.72,-0.06,5.00,-0.06,5.00,-5.00,-5.39,-5.35,-5.06,-5.06,-5.06
293.63,-0.11,4.93,-0.11,4.92,-4.92,-5.35,-5.26,-5.03,-5.04,-5.04
296.57,-0.17,4.84,-0.17,4.85,-4.84,-5.31,-5.16,-5.01,-5.01,-5.01
299.53,-0.22,4.76,-0.22,4.76,-4.76,-5.27,-5.06,-4.98,-4.98,-4.98
302.53,-0.27,4.69,-0.27,4.68,-4.68,-5.23,-4.96,-4.95,-4.95,-4.96
305.55,-0.32,4.59,-0.32,4.60,-4.60,-5.19,-4.87,-4.93,-4.92,-4.91
308.61,-0.35,4.53,-0.35,4.53,-4.53,-5.15,-4.77,-4.89,-4.89,-4.88
311.69,-0.38,4.46,-0.38,4.46,-4.47,-5.11,-4.67,-4.85,-4.85,-4.84
314.81,-0.40,4.41,-0.40,4.41,-4.42,-5.07,-4.58,-4.82,-4.82,-4.81
317.96,-0.42,4.36,-0.42,4.37,-4.37,-5.03,-4.49,-4.79,-4.79,-4.78
321.14,-0.42,4.33,-0.42,4.33,-4.33,-4.98,-4.40,-4.76,-4.76,-4.75
324.35,-0.42,4.31,-0.42,4.30,-4.30,-4.94,-4.31,-4.73,-4.73,-4.73
327.59,-0.42,4.27,-0.42,4.27,-4.28,-4.90,-4.23,-4.70,-4.70,-4.69
330.87,-0.41,4.25,-0.41,4.25,-4.26,-4.86,-4.14,-4.67,-4.67,-4.66
334.18,-0.41,4.23,-0.41,4.23,-4.23,-4.82,-4.06,-4.65,-4.64,-4.64
337.52,-0.40,4.22,-0.41,4.21,-4.21,-4.78,-3.98,-4.61,-4.62,-4.62
340.90,-0.41,4.18,-0.41,4.18,-4.18,-4.73,-3.91,-4.59,-4.59,-4.59
344.30,-0.43,4.14,-0.43,4.14,-4.14,-4.69,-3.83,-4.57,-4.57,-4.57
347.75,-0.45,4.09,-0.45,4.10,-4.09,-4.65,-3.76,-4.54,-4.53,-4.54
351.23,-0.48,4.04,-0.48,4.04,-4.02,-4.61,-3.70,-4.50,-4.50,-4.52
354.74,-0.52,3.99,-0.54,3.97,-3.95,-4.56,-3.63,-4.47,-4.48,-4.51
358.28,-0.62,3.87,-0.61,3.88,-3.86,-4.52,-3.57,-4.48,-4.48,-4.49
361.87,-0.70,3.77,-0.70,3.77,-3.77,-4.48,-3.51,-4.47,-4.47,-4.47
365.49,-0.79,3.65,-0.79,3.66,-3.68,-4.44,-3.45,-4.47,-4.47,-4.44
369.14,-0.87,3.56,-0.87,3.57,-3.58,-4.39,-3.40,-4.45,-4.45,-4.43
372.83,-0.94,3.48,-0.94,3.47,-3.48,-4.35,-3.35,-4.42,-4.42,-4.42
376.56,-1.00,3.40,-1.01,3.39,-3.39,-4.31,-3.30,-4.39,-4.40,-4.40
380.33,-1.07,3.30,-1.07,3.31,-3.31,-4.27,-3.26,-4.38,-4.37,-4.37
384.13,-1.12,3.23,-1.12,3.23,-3.23,-4.22,-3.21,-4.35,-4.35,-4.35
387.97,-1.17,3.16,-1.17,3.16,-3.16,-4.18,-3.17,-4.33,-4.33,-4.33
391.85,-1.21,3.10,-1.21,3.10,-3.10,-4.14,-3.13,-4.31,-4.31,-4.31
395.77,-1.24,3.04,-1.24,3.04,-3.05,-4.10,-3.10,-4.29,-4.29,-4.28
399.73,-1.26,3.00,-1.26,3.00,-3.00,-4.06,-3.06,-4.26,-4.27,-4.26
403.72,-1.28,2.97,-1.28,2.96,-2.96,-4.01,-3.03,-4.25,-4.25,-4.25
407.76,-1.29,2.94,-1.29,2.94,-2.94,-3.97,-3.00,-4.23,-4.23,-4.23
411.84,-1.30,2.90,-1.29,2.91,-2.91,-3.93,-2.97,-4.21,-4.21,-4.20
415.96,-1.28,2.90,-1.29,2.90,-2.90,-3.89,-2.94,-4.18,-4.18,-4.18
420.12,-1.27,2.89,-1.27,2.89,-2.89,-3.85,-2.92,-4.16,-4.16,-4.16
424.32,-1.25,2.88,-1.25,2.88,-2.88,-3.81,-2.90,-4.13,-4.13,-4.13
428.56,-1.23,2.88,-1.23,2.88,-2.88,-3.76,-2.87,-4.11,-4.11,-4.11
432.85,-1.20,2.89,-1.20,2.89,-2.89,-3.72,-2.85,-4.09,-4.09,-4.09
437.18,-1.16,2.90,-1.17,2.89,-2.90,-3.68,-2.83,-4.06,-4.07,-4.06
441.55,-1.12,2.91,-1.13,2.91,-2.92,-3.64,-2.81,-4.04,-4.05,-4.03
445.96,-1.09,2.92,-1.08,2.93,-2.94,-3.60,-2.80,-4.04,-4.02,-4.01
450.42,-1.02,2.98,-1.03,2.96,-2.97,-3.56,-2.78,-3.99,-4.00,-4.00
454.93,-0.97,2.99,-0.97,3.00,-2.99,-3.52,-2.76,-3.97,-3.96,-3.96
459.48,-0.91,3.03,-0.91,3.03,-3.02,-3.48,-2.75,-3.93,-3.93,-3.94
