frequency,raw,error,smoothed,error_smoothed,equalization,parametric_eq,fixed_band_eq,equalized_raw,equalized_smoothed,target
20.00,-13.30,-15.14,-13.31,-15.17,15.17,13.95,4.96,1.86,1.86,1.84
20.20,-13.18,-15.02,-13.18,-15.04,15.04,13.97,5.08,1.86,1.85,1.84
20.40,-13.06,-14.90,-13.06,-14.91,14.91,13.99,5.21,1.85,1.85,1.84
20.61,-12.94,-14.78,-12.94,-14.78,14.78,13.99,5.34,1.84,1.84,1.84
20.81,-12.82,-14.66,-12.82,-14.65,14.65,13.99,5.47,1.83,1.83,1.84
21.02,-12.71,-14.55,-12.70,-14.52,14.52,13.98,5.61,1.81,1.82,1.84
21.23,-12.58,-14.40,-12.58,-14.39,14.39,13.97,5.75,1.81,1.80,1.82
21.44,-12.47,-14.28,-12.46,-14.25,14.25,13.94,5.89,1.78,1.79,1.81
21.66,-12.35,-14.14,-12.34,-14.12,14.12,13.91,6.04,1.77,1.78,1.79
21.87,-12.23,-14.00,-12.23,-13.99,13.99,13.87,6.19,1.76,1.76,1.77
22.09,-12.11,-13.87,-12.11,-13.85,13.85,13.82,6.35,1.74,1.75,1.76
22.31,-11.99,-13.72,-11.99,-13.72,13.72,13.76,6.51,1.73,1.73,1.73
22.54,-11.87,-13.58,-11.87,-13.57,13.57,13.69,6.67,1.70,1.71,1.71
22.76,-11.74,-13.43,-11.75,-13.43,13.43,13.62,6.84,1.69,1.68,1.69
22.99,-11.63,-13.29,-11.63,-13.29,13.29,13.54,7.02,1.66,1.66,1.66
23.22,-11.51,-13.14,-11.51,-13.15,13.15,13.44,7.19,1.64,1.64,1.63
23.45,-11.38,-12.98,-11.39,-13.01,13.01,13.35,7.38,1.63,1.62,1.60
23.69,-11.27,-12.86,-11.27,-12.87,12.87,13.24,7.56,1.60,1.60,1.59
23.92,-11.15,-12.72,-11.16,-12.73,12.73,13.13,7.75,1.58,1.57,1.57
24.16,-11.03,-12.59,-11.04,-12.60,12.60,13.01,7.95,1.57,1.56,1.56
24.40,-10.93,-12.47,-10.93,-12.46,12.46,12.89,8.15,1.53,1.54,1.54
24.65,-10.81,-12.33,-10.82,-12.33,12.33,12.75,8.35,1.52,1.52,1.52
24.89,-10.70,-12.20,-10.70,-12.20,12.20,12.62,8.56,1.50,1.50,1.50
25.14,-10.59,-12.08,-10.59,-12.07,12.07,12.47,8.77,1.48,1.48,1.49
25.39,-10.48,-11.95,-10.48,-11.95,11.95,12.33,8.98,1.47,1.47,1.47
25.65,-10.37,-11.83,-10.37,-11.82,11.82,12.18,9.20,1.45,1.45,1.46
25.91,-10.26,-11.69,-10.26,-11.69,11.69,12.02,9.42,1.43,1.44,1.43
26.16,-10.15,-11.57,-10.15,-11.57,11.57,11.86,9.65,1.42,1.42,1.42
26.43,-10.03,-11.44,-10.03,-11.43,11.43,11.70,9.87,1.40,1.40,1.41
26.69,-9.92,-11.30,-9.92,-11.30,11.30,11.53,10.10,1.38,1.39,1.38
26.96,-9.80,-11.17,-9.80,-11.17,11.17,11.36,10.32,1.37,1.37,1.37
27.23,-9.68,-11.04,-9.68,-11.03,11.03,11.19,10.55,1.35,1.36,1.36
27.50,-9.56,-10.91,-9.56,-10.90,10.90,11.01,10.77,1.34,1.34,1.35
27.77,-9.44,-10.77,-9.43,-10.76,10.76,10.84,10.98,1.32,1.33,1.33
28.05,-9.31,-10.63,-9.31,-10.62,10.62,10.66,11.19,1.31,1.31,1.32
28.33,-9.18,-10.48,-9.18,-10.49,10.49,10.48,11.39,1.30,1.30,1.30
28.62,-9.05,-10.34,-9.06,-10.34,10.34,10.30,11.58,1.29,1.29,1.29
28.90,-8.93,-10.20,-8.93,-10.20,10.20,10.11,11.76,1.27,1.28,1.27
29.19,-8.80,-10.05,-8.80,-10.06,10.06,9.93,11.92,1.26,1.26,1.25
29.48,-8.66,-9.91,-8.67,-9.92,9.92,9.74,12.06,1.26,1.25,1.25
29.78,-8.53,-9.77,-8.54,-9.77,9.77,9.56,12.18,1.24,1.24,1.24
30.08,-8.40,-9.63,-8.41,-9.63,9.63,9.37,12.28,1.22,1.22,1.23
30.38,-8.28,-9.49,-8.28,-9.48,9.48,9.19,12.35,1.20,1.21,1.21
30.68,-8.14,-9.34,-8.14,-9.33,9.33,9.00,12.39,1.19,1.19,1.20
30.99,-8.01,-9.18,-8.01,-9.19,9.19,8.82,12.39,1.17,1.17,1.17
31.30,-7.88,-9.04,-7.88,-9.04,9.04,8.63,12.37,1.15,1.16,1.16
31.61,-7.74,-8.89,-7.75,-8.89,8.89,8.44,12.32,1.15,1.14,1.15
31.93,-7.61,-8.74,-7.61,-8.74,8.74,8.26,12.23,1.12,1.12,1.13
32.24,-7.48,-8.58,-7.48,-8.58,8.58,8.07,12.12,1.10,1.10,1.10
32.57,-7.34,-8.42,-7.35,-8.43,8.43,7.89,11.97,1.09,1.08,1.08
32.89,-7.21,-8.28,-7.21,-8.27,8.27,7.70,11.80,1.06,1.06,1.07
33.22,-7.07,-8.11,-7.07,-8.12,8.12,7.52,11.61,1.05,1.04,1.04
33.55,-6.94,-7.97,-6.94,-7.96,7.96,7.34,11.39,1.02,1.02,1.03
33.89,-6.80,-7.80,-6.80,-7.80,7.80,7.15,11.16,1.00,1.00,1.00
34.23,-6.66,-7.64,-6.66,-7.64,7.64,6.97,10.91,0.98,0.98,0.98
34.57,-6.52,-7.48,-6.52,-7.48,7.48,6.79,10.65,0.96,0.96,0.96
34.92,-6.38,-7.32,-6.38,-7.32,7.32,6.61,10.38,0.94,0.94,0.94
35.27,-6.24,-7.16,-6.24,-7.16,7.16,6.43,10.10,0.92,0.92,0.92
35.62,-6.09,-6.99,-6.10,-7.00,7.00,6.25,9.81,0.90,0.90,0.90
35.97,-5.95,-6.83,-5.95,-6.83,6.83,6.07,9.52,0.88,0.88,0.88
36.33,-5.80,-6.66,-5.81,-6.66,6.66,5.90,9.22,0.86,0.86,0.86
36.70,-5.66,-6.50,-5.66,-6.50,6.50,5.72,8.93,0.83,0.84,0.84
37.06,-5.51,-6.33,-5.51,-6.33,6.33,5.55,8.63,0.82,0.82,0.82
37.43,-5.36,-6.16,-5.36,-6.15,6.15,5.37,8.33,0.79,0.79,0.80
37.81,-5.21,-5.99,-5.21,-5.98,5.98,5.20,8.03,0.77,0.77,0.78
38.19,-5.05,-5.80,-5.05,-5.80,5.80,5.03,7.74,0.75,0.75,0.75
38.57,-4.90,-5.64,-4.89,-5.63,5.63,4.86,7.44,0.72,0.73,0.74
38.95,-4.74,-5.45,-4.74,-5.45,5.45,4.69,7.15,0.71,0.71,0.71
39.34,-4.58,-5.27,-4.57,-5.27,5.27,4.52,6.86,0.69,0.69,0.69
39.74,-4.41,-5.08,-4.41,-5.09,5.09,4.35,6.57,0.68,0.67,0.67
40.14,-4.25,-4.91,-4.25,-4.91,4.91,4.18,6.28,0.65,0.66,0.66
40.54,-4.08,-4.72,-4.09,-4.72,4.72,4.02,6.00,0.64,0.64,0.64
40.94,-3.91,-4.53,-3.92,-4.54,4.54,3.85,5.72,0.63,0.62,0.62
41.35,-3.75,-4.34,-3.75,-4.35,4.35,3.69,5.44,0.60,0.60,0.59
41.76,-3.58,-4.17,-3.58,-4.17,4.17,3.53,5.17,0.59,0.58,0.59
42.18,-3.41,-3.98,-3.42,-3.98,3.98,3.37,4.90,0.57,0.56,0.57
42.60,-3.25,-3.80,-3.25,-3.79,3.79,3.21,4.63,0.54,0.54,0.55
43.03,-3.08,-3.62,-3.08,-3.60,3.60,3.05,4.36,0.52,0.52,0.54
43.46,-2.91,-3.42,-2.91,-3.42,3.42,2.89,4.09,0.50,0.51,0.51
43.90,-2.74,-3.23,-2.74,-3.23,3.23,2.73,3.83,0.48,0.49,0.49
44.33,-2.57,-3.04,-2.57,-3.04,3.04,2.58,3.57,0.47,0.47,0.47
44.78,-2.40,-2.85,-2.40,-2.85,2.85,2.42,3.31,0.45,0.45,0.45
45.23,-2.23,-2.65,-2.23,-2.66,2.66,2.27,3.05,0.43,0.43,0.42
45.68,-2.06,-2.46,-2.06,-2.47,2.47,2.12,2.80,0.41,0.41,0.40
46.13,-1.88,-2.27,-1.89,-2.28,2.28,1.97,2.54,0.40,0.39,0.39
46.60,-1.72,-2.10,-1.72,-2.09,2.09,1.82,2.29,0.37,0.37,0.38
47.06,-1.55,-1.91,-1.55,-1.90,1.90,1.67,2.04,0.35,0.35,0.36
47.53,-1.38,-1.72,-1.38,-1.72,1.72,1.52,1.79,0.33,0.33,0.34
48.01,-1.22,-1.55,-1.22,-1.53,1.53,1.37,1.54,0.31,0.31,0.33
48.49,-1.05,-1.35,-1.06,-1.34,1.34,1.23,1.30,0.29,0.29,0.30
48.97,-0.89,-1.16,-0.89,-1.16,1.16,1.08,1.05,0.27,0.27,0.27
49.46,-0.73,-0.97,-0.73,-0.98,0.98,0.94,0.81,0.25,0.25,0.24
49.96,-0.57,-0.78,-0.57,-0.80,0.80,0.80,0.57,0.22,0.22,0.21
50.46,-0.41,-0.61,-0.41,-0.62,0.62,0.66,0.33,0.20,0.20,0.20
50.96,-0.26,-0.44,-0.26,-0.44,0.44,0.52,0.10,0.18,0.18,0.18
51.47,-0.10,-0.25,-0.11,-0.26,0.26,0.38,-0.14,0.16,0.15,0.15
51.99,0.05,-0.08,0.05,-0.08,0.08,0.24,-0.37,0.13,0.13,0.13
52.51,0.19,0.08,0.19,0.09,-0.09,0.11,-0.60,0.10,0.10,0.11
53.03,0.34,0.25,0.34,0.26,-0.26,-0.03,-0.82,0.08,0.08,0.09
53.56,0.49,0.43,0.49,0.43,-0.43,-0.16,-1.04,0.06,0.06,0.06
54.10,0.64,0.60,0.63,0.59,-0.59,-0.29,-1.26,0.04,0.03,0.04
54.64,0.77,0.76,0.77,0.76,-0.76,-0.42,-1.48,0.01,0.01,0.01
55.18,0.91,0.92,0.91,0.92,-0.92,-0.55,-1.68,-0.01,-0.01,-0.01
55.74,1.04,1.08,1.04,1.08,-1.08,-0.68,-1.89,-0.04,-0.04,-0.04
56.29,1.17,1.23,1.17,1.23,-1.23,-0.81,-2.08,-0.06,-0.06,-0.06
56.86,1.31,1.40,1.30,1.39,-1.39,-0.93,-2.28,-0.08,-0.08,-0.09
57.42,1.43,1.54,1.43,1.54,-1.54,-1.06,-2.46,-0.11,-0.11,-0.11
58.00,1.56,1.69,1.56,1.69,-1.69,-1.18,-2.64,-0.13,-0.13,-0.13
58.58,1.68,1.84,1.68,1.84,-1.84,-1.31,-2.80,-0.16,-0.16,-0.16
59.16,1.80,1.98,1.80,1.98,-1.98,-1.43,-2.96,-0.18,-0.19,-0.18
59.76,1.91,2.11,1.91,2.12,-2.12,-1.55,-3.12,-0.22,-0.21,-0.20
60.35,2.03,2.26,2.02,2.26,-2.26,-1.67,-3.26,-0.23,-0.24,-0.23
60.96,2.13,2.38,2.13,2.40,-2.40,-1.78,-3.39,-0.27,-0.27,-0.25
61.57,2.24,2.53,2.24,2.53,-2.53,-1.90,-3.51,-0.29,-0.29,-0.29
62.18,2.35,2.67,2.34,2.66,-2.66,-2.01,-3.63,-0.31,-0.32,-0.32
62.80,2.45,2.80,2.45,2.79,-2.79,-2.13,-3.73,-0.34,-0.35,-0.35
63.43,2.55,2.93,2.54,2.91,-2.91,-2.24,-3.82,-0.37,-0.37,-0.38
64.07,2.63,3.04,2.64,3.04,-3.04,-2.35,-3.91,-0.41,-0.40,-0.41
64.71,2.73,3.16,2.73,3.15,-3.15,-2.46,-3.98,-0.43,-0.42,-0.43
65.35,2.82,3.27,2.82,3.27,-3.27,-2.57,-4.05,-0.45,-0.45,-0.45
66.01,2.90,3.37,2.90,3.38,-3.38,-2.68,-4.10,-0.48,-0.48,-0.47
66.67,2.99,3.49,2.99,3.49,-3.49,-2.79,-4.15,-0.50,-0.50,-0.50
67.33,3.07,3.59,3.06,3.59,-3.59,-2.89,-4.19,-0.52,-0.53,-0.52
68.01,3.14,3.69,3.14,3.69,-3.69,-2.99,-4.23,-0.55,-0.55,-0.55
68.69,3.22,3.79,3.21,3.79,-3.79,-3.10,-4.26,-0.57,-0.58,-0.57
69.37,3.28,3.88,3.28,3.88,-3.88,-3.20,-4.28,-0.60,-0.60,-0.60
70.07,3.35,3.98,3.35,3.97,-3.97,-3.30,-4.30,-0.63,-0.63,-0.63
70.77,3.41,4.06,3.41,4.07,-4.07,-3.40,-4.32,-0.66,-0.66,-0.65
71.48,3.47,4.15,3.47,4.15,-4.15,-3.49,-4.33,-0.69,-0.69,-0.68
72.19,3.52,4.23,3.52,4.24,-4.24,-3.59,-4.34,-0.72,-0.72,-0.71
72.91,3.58,4.33,3.57,4.32,-4.32,-3.68,-4.34,-0.74,-0.75,-0.75
73.64,3.62,4.40,3.62,4.40,-4.40,-3.78,-4.35,-0.78,-0.78,-0.78
74.38,3.66,4.47,3.66,4.48,-4.48,-3.87,-4.35,-0.82,-0.82,-0.81
75.12,3.71,4.57,3.70,4.55,-4.55,-3.96,-4.36,-0.85,-0.85,-0.86
75.87,3.74,4.63,3.74,4.63,-4.63,-4.05,-4.36,-0.89,-0.89,-0.89
76.63,3.78,4.70,3.77,4.70,-4.70,-4.14,-4.37,-0.92,-0.93,-0.92
77.40,3.80,4.76,3.80,4.77,-4.77,-4.22,-4.37,-0.97,-0.97,-0.96
78.17,3.83,4.85,3.83,4.83,-4.83,-4.31,-4.38,-1.01,-1.01,-1.02
78.95,3.85,4.89,3.85,4.90,-4.90,-4.39,-4.39,-1.05,-1.05,-1.04
79.74,3.87,4.95,3.87,4.96,-4.96,-4.47,-4.40,-1.09,-1.09,-1.08
80.54,3.88,5.01,3.88,5.02,-5.02,-4.55,-4.41,-1.14,-1.13,-1.13
81.35,3.90,5.07,3.90,5.07,-5.07,-4.63,-4.43,-1.17,-1.18,-1.17
82.16,3.91,5.13,3.91,5.13,-5.13,-4.71,-4.45,-1.22,-1.22,-1.22
82.98,3.92,5.18,3.91,5.18,-5.18,-4.79,-4.47,-1.26,-1.26,-1.26
83.81,3.92,5.24,3.92,5.23,-5.23,-4.86,-4.50,-1.31,-1.31,-1.32
84.65,3.91,5.27,3.92,5.28,-5.28,-4.94,-4.53,-1.37,-1.36,-1.36
85.50,3.92,5.32,3.91,5.32,-5.32,-5.01,-4.56,-1.40,-1.41,-1.40
86.35,3.91,5.36,3.91,5.36,-5.36,-5.08,-4.60,-1.45,-1.45,-1.45
87.22,3.90,5.40,3.90,5.40,-5.40,-5.15,-4.64,-1.50,-1.50,-1.50
88.09,3.89,5.45,3.89,5.44,-5.44,-5.22,-4.69,-1.55,-1.55,-1.56
88.97,3.88,5.48,3.87,5.48,-5.48,-5.29,-4.74,-1.60,-1.60,-1.60
89.86,3.86,5.51,3.86,5.51,-5.51,-5.36,-4.79,-1.65,-1.65,-1.65
90.76,3.84,5.55,3.84,5.55,-5.55,-5.42,-4.84,-1.71,-1.71,-1.71
91.66,3.82,5.58,3.82,5.58,-5.58,-5.48,-4.91,-1.76,-1.76,-1.76
92.58,3.79,5.61,3.79,5.61,-5.61,-5.55,-4.97,-1.82,-1.81,-1.82
93.51,3.77,5.63,3.77,5.64,-5.64,-5.61,-5.04,-1.87,-1.87,-1.86
94.44,3.75,5.66,3.75,5.67,-5.67,-5.67,-5.11,-1.92,-1.92,-1.91
95.39,3.72,5.69,3.72,5.70,-5.70,-5.72,-5.19,-1.98,-1.98,-1.97
96.34,3.69,5.73,3.69,5.73,-5.73,-5.78,-5.26,-2.04,-2.04,-2.04
97.30,3.66,5.75,3.66,5.76,-5.76,-5.84,-5.35,-2.10,-2.09,-2.09
98.28,3.64,5.79,3.63,5.79,-5.79,-5.89,-5.43,-2.15,-2.15,-2.15
99.26,3.60,5.82,3.60,5.82,-5.82,-5.94,-5.52,-2.22,-2.21,-2.22
100.25,3.57,5.84,3.57,5.85,-5.85,-5.99,-5.61,-2.28,-2.27,-2.27
101.25,3.54,5.87,3.54,5.88,-5.88,-6.04,-5.71,-2.34,-2.34,-2.33
102.27,3.51,5.91,3.51,5.91,-5.91,-6.09,-5.80,-2.40,-2.40,-2.40
103.29,3.48,5.95,3.48,5.94,-5.94,-6.14,-5.90,-2.46,-2.46,-2.47
104.32,3.45,5.97,3.44,5.97,-5.97,-6.19,-6.00,-2.52,-2.53,-2.52
105.37,3.41,5.99,3.41,6.00,-6.00,-6.23,-6.10,-2.59,-2.59,-2.58
106.42,3.37,6.02,3.38,6.03,-6.03,-6.27,-6.20,-2.66,-2.65,-2.65
107.48,3.34,6.06,3.34,6.06,-6.06,-6.32,-6.30,-2.73,-2.72,-2.72
108.56,3.31,6.10,3.31,6.10,-6.10,-6.36,-6.40,-2.79,-2.79,-2.79
109.64,3.28,6.13,3.28,6.13,-6.13,-6.39,-6.49,-2.85,-2.85,-2.85
110.74,3.25,6.16,3.24,6.16,-6.16,-6.43,-6.59,-2.92,-2.92,-2.91
111.85,3.21,6.19,3.21,6.20,-6.20,-6.47,-6.68,-2.99,-2.99,-2.98
112.97,3.17,6.23,3.17,6.23,-6.23,-6.50,-6.77,-3.06,-3.06,-3.06
114.10,3.14,6.26,3.14,6.26,-6.26,-6.54,-6.86,-3.12,-3.12,-3.12
115.24,3.11,6.30,3.10,6.29,-6.29,-6.57,-6.94,-3.19,-3.19,-3.19
116.39,3.07,6.33,3.07,6.33,-6.33,-6.60,-7.01,-3.26,-3.26,-3.26
117.55,3.04,6.37,3.03,6.36,-6.36,-6.63,-7.08,-3.32,-3.32,-3.33
118.73,3.00,6.39,3.00,6.38,-6.38,-6.66,-7.14,-3.39,-3.39,-3.39
119.92,2.96,6.41,2.96,6.41,-6.41,-6.69,-7.19,-3.45,-3.45,-3.45
121.12,2.93,6.44,2.92,6.44,-6.44,-6.72,-7.24,-3.51,-3.51,-3.51
122.33,2.89,6.47,2.89,6.46,-6.46,-6.74,-7.27,-3.57,-3.58,-3.58
123.55,2.85,6.48,2.85,6.49,-6.49,-6.76,-7.30,-3.64,-3.64,-3.63
124.79,2.81,6.50,2.81,6.51,-6.51,-6.79,-7.32,-3.70,-3.70,-3.69
126.03,2.78,6.52,2.78,6.53,-6.53,-6.81,-7.33,-3.75,-3.75,-3.74
127.29,2.74,6.54,2.74,6.55,-6.55,-6.83,-7.33,-3.81,-3.81,-3.80
128.57,2.70,6.57,2.70,6.57,-6.57,-6.85,-7.33,-3.87,-3.87,-3.87
129.85,2.67,6.59,2.67,6.59,-6.59,-6.86,-7.31,-3.92,-3.92,-3.92
131.15,2.63,6.60,2.63,6.60,-6.60,-6.88,-7.29,-3.97,-3.97,-3.97
132.46,2.60,6.63,2.59,6.62,-6.62,-6.90,-7.25,-4.02,-4.02,-4.03
133.79,2.56,6.63,2.56,6.63,-6.63,-6.91,-7.21,-4.07,-4.07,-4.07
135.12,2.52,6.65,2.52,6.64,-6.64,-6.92,-7.17,-4.12,-4.12,-4.13
136.48,2.48,6.64,2.48,6.65,-6.65,-6.94,-7.12,-4.17,-4.16,-4.16
137.84,2.45,6.65,2.45,6.65,-6.65,-6.95,-7.06,-4.21,-4.20,-4.20
139.22,2.42,6.67,2.42,6.66,-6.66,-6.96,-7.00,-4.24,-4.24,-4.25
140.61,2.38,6.67,2.38,6.66,-6.66,-6.97,-6.94,-4.28,-4.28,-4.29
142.02,2.35,6.66,2.35,6.66,-6.66,-6.97,-6.87,-4.31,-4.32,-4.31
143.44,2.31,6.65,2.31,6.66,-6.66,-6.98,-6.80,-4.35,-4.35,-4.34
144.87,2.28,6.66,2.28,6.66,-6.66,-6.98,-6.73,-4.38,-4.38,-4.38
146.32,2.25,6.66,2.25,6.66,-6.66,-6.99,-6.66,-4.41,-4.41,-4.41
147.78,2.21,6.64,2.21,6.65,-6.65,-6.99,-6.58,-4.44,-4.44,-4.43
149.26,2.19,6.65,2.18,6.65,-6.65,-6.99,-6.51,-4.46,-4.47,-4.46
150.75,2.15,6.65,2.15,6.64,-6.64,-6.99,-6.44,-4.49,-4.50,-4.50
152.26,2.12,6.64,2.11,6.64,-6.64,-6.99,-6.37,-4.52,-4.52,-4.52
153.78,2.08,6.63,2.08,6.63,-6.63,-6.99,-6.30,-4.55,-4.55,-4.55
155.32,2.05,6.62,2.05,6.63,-6.63,-6.99,-6.24,-4.58,-4.58,-4.57
156.88,2.02,6.62,2.02,6.62,-6.62,-6.99,-6.17,-4.60,-4.60,-4.60
158.44,1.98,6.61,1.99,6.62,-6.62,-6.98,-6.11,-4.64,-4.63,-4.63
160.03,1.96,6.62,1.95,6.61,-6.61,-6.98,-6.05,-4.65,-4.66,-4.66
161.63,1.92,6.61,1.92,6.61,-6.61,-6.97,-6.00,-4.69,-4.69,-4.69
163.24,1.89,6.61,1.89,6.60,-6.60,-6.97,-5.95,-4.72,-4.71,-4.72
164.88,1.86,6.60,1.86,6.60,-6.60,-6.96,-5.90,-4.74,-4.74,-4.74
166.53,1.83,6.59,1.82,6.60,-6.60,-6.95,-5.86,-4.77,-4.77,-4.76
168.19,1.80,6.60,1.79,6.59,-6.59,-6.94,-5.82,-4.79,-4.80,-4.80
169.87,1.76,6.59,1.76,6.59,-6.59,-6.93,-5.79,-4.83,-4.83,-4.83
171.57,1.73,6.59,1.73,6.59,-6.59,-6.92,-5.76,-4.86,-4.86,-4.86
173.29,1.69,6.57,1.69,6.59,-6.59,-6.91,-5.73,-4.90,-4.90,-4.88
175.02,1.66,6.58,1.66,6.59,-6.59,-6.89,-5.71,-4.93,-4.93,-4.92
176.77,1.63,6.59,1.63,6.59,-6.59,-6.88,-5.69,-4.96,-4.96,-4.96
178.54,1.59,6.59,1.59,6.59,-6.59,-6.87,-5.68,-5.00,-5.00,-5.00
180.32,1.56,6.59,1.55,6.59,-6.59,-6.85,-5.67,-5.03,-5.03,-5.03
182.13,1.52,6.58,1.52,6.58,-6.58,-6.83,-5.67,-5.07,-5.07,-5.06
183.95,1.48,6.58,1.48,6.58,-6.58,-6.82,-5.67,-5.10,-5.10,-5.10
185.79,1.45,6.59,1.44,6.58,-6.58,-6.80,-5.67,-5.13,-5.14,-5.14
187.65,1.41,6.59,1.41,6.57,-6.57,-6.78,-5.68,-5.17,-5.17,-5.18
189.52,1.36,6.57,1.37,6.57,-6.57,-6.76,-5.69,-5.21,-5.20,-5.21
191.42,1.33,6.56,1.33,6.56,-6.56,-6.74,-5.71,-5.23,-5.23,-5.23
193.33,1.29,6.54,1.29,6.55,-6.55,-6.72,-5.73,-5.26,-5.26,-5.25
195.27,1.25,6.53,1.25,6.54,-6.54,-6.70,-5.75,-5.29,-5.29,-5.28
197.22,1.21,6.52,1.21,6.52,-6.52,-6.68,-5.78,-5.31,-5.32,-5.31
199.19,1.17,6.53,1.16,6.51,-6.51,-6.65,-5.81,-5.34,-5.34,-5.36
201.18,1.13,6.50,1.12,6.49,-6.49,-6.63,-5.84,-5.36,-5.37,-5.37
203.19,1.08,6.47,1.08,6.47,-6.47,-6.61,-5.88,-5.39,-5.39,-5.39
205.23,1.04,6.45,1.04,6.45,-6.45,-6.58,-5.92,-5.41,-5.41,-5.41
207.28,1.00,6.42,1.00,6.43,-6.43,-6.56,-5.96,-5.44,-5.43,-5.42
209.35,0.96,6.41,0.96,6.41,-6.41,-6.53,-6.00,-5.46,-5.45,-5.45
211.44,0.93,6.40,0.92,6.39,-6.39,-6.50,-6.04,-5.47,-5.47,-5.47
213.56,0.88,6.37,0.88,6.37,-6.37,-6.48,-6.08,-5.49,-5.49,-5.49
215.69,0.84,6.33,0.85,6.35,-6.35,-6.45,-6.12,-5.51,-5.50,-5.49
217.85,0.81,6.31,0.81,6.33,-6.33,-6.42,-6.17,-5.52,-5.51,-5.50
220.03,0.78,6.31,0.78,6.30,-6.30,-6.39,-6.21,-5.52,-5.52,-5.53
222.23,0.75,6.29,0.75,6.28,-6.28,-6.36,-6.25,-5.53,-5.53,-5.54
224.45,0.72,6.25,0.72,6.25,-6.25,-6.33,-6.28,-5.53,-5.53,-5.53
226.70,0.68,6.22,0.69,6.22,-6.22,-6.30,-6.32,-5.54,-5.54,-5.54
228.96,0.66,6.20,0.66,6.19,-6.19,-6.27,-6.35,-5.54,-5.54,-5.54
231.25,0.63,6.16,0.63,6.16,-6.16,-6.24,-6.37,-5.53,-5.53,-5.53
233.57,0.60,6.12,0.60,6.13,-6.13,-6.21,-6.40,-5.53,-5.53,-5.52
235.90,0.57,6.09,0.57,6.09,-6.09,-6.18,-6.41,-5.52,-5.52,-5.52
238.26,0.55,6.07,0.54,6.05,-6.05,-6.15,-6.43,-5.50,-5.51,-5.52
240.64,0.52,6.02,0.51,6.01,-6.01,-6.11,-6.43,-5.49,-5.50,-5.50
243.05,0.49,5.97,0.48,5.96,-5.96,-6.08,-6.43,-5.47,-5.48,-5.48
245.48,0.45,5.91,0.45,5.91,-5.91,-6.05,-6.42,-5.47,-5.47,-5.46
247.93,0.42,5.87,0.42,5.87,-5.87,-6.01,-6.41,-5.45,-5.45,-5.45
250.41,0.39,5.83,0.39,5.82,-5.82,-5.98,-6.39,-5.43,-5.43,-5.44
252.92,0.36,5.76,0.36,5.77,-5.77,-5.94,-6.36,-5.41,-5.41,-5.40
255.45,0.32,5.70,0.33,5.72,-5.72,-5.91,-6.32,-5.40,-5.39,-5.38
258.00,0.30,5.66,0.31,5.67,-5.67,-5.87,-6.28,-5.37,-5.37,-5.36
260.58,0.27,5.61,0.28,5.62,-5.62,-5.84,-6.23,-5.35,-5.34,-5.34
263.19,0.24,5.56,0.25,5.57,-5.57,-5.80,-6.17,-5.33,-5.32,-5.32
265.82,0.22,5.52,0.23,5.52,-5.52,-5.76,-6.11,-5.30,-5.30,-5.30
268.48,0.20,5.47,0.20,5.47,-5.47,-5.73,-6.04,-5.27,-5.27,-5.27
271.16,0.18,5.42,0.17,5.42,-5.42,-5.69,-5.97,-5.24,-5.25,-5.24
273.87,0.15,5.37,0.15,5.37,-5.37,-5.65,-5.89,-5.22,-5.22,-5.22
276.61,0.13,5.32,0.11,5.31,-5.31,-5.62,-5.81,-5.18,-5.20,-5.19
279.38,0.10,5.27,0.08,5.25,-5.25,-5.58,-5.72,-5.16,-5.17,-5.17
282.17,0.06,5.21,0.04,5.19,-5.19,-5.54,-5.63,-5.13,-5.15,-5.15
284.99,0.02,5.14,0.00,5.13,-5.13,-5.50,-5.54,-5.11,-5.12,-5.12
287.84,-0.02,5.08,-0.04,5.06,-5.06,-5.47,-5.45,-5.08,-5.09,-5.10
290.72,-0.06,5.00,-0.08,4.98,-4.98,-5.43,-5.35,-5.04,-5.07,-5.06
293.63,-0.11,4.93,-0.13,4.91,-4.91,-5.39,-5.25,-5.02,-5.04,-5.04
296.57,-0.17,4.84,-0.17,4.83,-4.83,-5.35,-5.16,-5.01,-5.01,-5.01
299.53,-0.22,4.76,-0.22,4.76,-4.76,-5.31,-5.06,-4.98,-4.98,-4.98
302.53,-0.27,4.69,-0.26,4.69,-4.69,-5.27,-4.96,-4.96,-4.95,-4.96
305.55,-0.32,4.59,-0.30,4.62,-4.62,-5.24,-4.86,-4.94,-4.91,-4.91
308.61,-0.35,4.53,-0.33,4.55,-4.55,-5.20,-4.77,-4.91,-4.88,-4.88
311.69,-0.38,4.46,-0.35,4.50,-4.50,-5.16,-4.67,-4.88,-4.85,-4.84
314.81,-0.40,4.41,-0.38,4.44,-4.44,-5.12,-4.58,-4.84,-4.82,-4.81
317.96,-0.42,4.36,-0.39,4.40,-4.40,-5.08,-4.49,-4.82,-4.79,-4.78
321.14,-0.42,4.33,-0.40,4.36,-4.36,-5.04,-4.40,-4.78,-4.76,-4.75
324.35,-0.42,4.31,-0.40,4.32,-4.32,-5.00,-4.31,-4.74,-4.73,-4.73
327.59,-0.42,4.27,-0.41,4.29,-4.29,-4.96,-4.22,-4.71,-4.70,-4.69
330.87,-0.41,4.25,-0.41,4.26,-4.26,-4.92,-4.14,-4.67,-4.67,-4.66
334.18,-0.41,4.23,-0.41,4.23,-4.23,-4.88,-4.06,-4.64,-4.64,-4.64
337.52,-0.40,4.22,-0.42,4.19,-4.19,-4.84,-3.98,-4.59,-4.62,-4.62
340.90,-0.41,4.18,-0.44,4.15,-4.15,-4.81,-3.91,-4.56,-4.59,-4.59
344.30,-0.43,4.14,-0.47,4.11,-4.11,-4.77,-3.84,-4.54,-4.57,-4.57
347.75,-0.45,4.09,-0.50,4.05,-4.05,-4.73,-3.77,-4.50,-4.55,-4.54
351.23,-0.48,4.04,-0.54,3.99,-3.99,-4.69,-3.70,-4.47,-4.53,-4.52
354.74,-0.52,3.99,-0.59,3.92,-3.92,-4.65,-3.63,-4.44,-4.51,-4.51
358.28,-0.62,3.87,-0.65,3.84,-3.84,-4.61,-3.57,-4.47,-4.49,-4.49
361.87,-0.70,3.77,-0.71,3.76,-3.76,-4.57,-3.51,-4.46,-4.47,-4.47
365.49,-0.79,3.65,-0.77,3.68,-3.68,-4.53,-3.46,-4.47,-4.45,-4.44
369.14,-0.87,3.56,-0.84,3.59,-3.59,-4.49,-3.40,-4.46,-4.43,-4.43
372.83,-0.94,3.48,-0.91,3.50,-3.50,-4.45,-3.35,-4.44,-4.41,-4.42
376.56,-1.00,3.40,-0.98,3.41,-3.41,-4.42,-3.30,-4.41,-4.39,-4.40
380.33,-1.07,3.30,-1.05,3.33,-3.33,-4.38,-3.26,-4.40,-4.37,-4.37
384.13,-1.12,3.23,-1.11,3.25,-3.25,-4.34,-3.22,-4.37,-4.35,-4.35
387.97,-1.17,3.16,-1.16,3.17,-3.17,-4.30,-3.17,-4.35,-4.33,-4.33
391.85,-1.21,3.10,-1.20,3.11,-3.11,-4.26,-3.14,-4.32,-4.31,-4.31
395.77,-1.24,3.04,-1.24,3.05,-3.05,-4.22,-3.10,-4.30,-4.29,-4.28
399.73,-1.26,3.00,-1.26,3.01,-3.01,-4.19,-3.07,-4.27,-4.27,-4.26
403.72,-1.28,2.97,-1.28,2.97,-2.97,-4.15,-3.03,-4.25,-4.25,-4.25
407.76,-1.29,2.94,-1.29,2.94,-2.94,-4.11,-3.00,-4.23,-4.23,-4.23
411.84,-1.30,2.90,-1.29,2.91,-2.91,-4.07,-2.98,-4.21,-4.20,-4.20
415.96,-1.28,2.90,-1.28,2.90,-2.90,-4.04,-2.95,-4.18,-4.18,-4.18
420.12,-1.27,2.89,-1.27,2.89,-2.89,-4.00,-2.93,-4.16,-4.16,-4.16
424.32,-1.25,2.88,-1.25,2.89,-2.89,-3.96,-2.90,-4.14,-4.14,-4.13
428.56,-1.23,2.88,-1.22,2.89,-2.89,-3.93,-2.88,-4.12,-4.11,-4.11
432.85,-1.20,2.89,-1.19,2.90,-2.90,-3.89,-2.86,-4.10,-4.09,-4.09
437.18,-1.16,2.90,-1.15,2.91,-2.91,-3.85,-2.84,-4.08,-4.06,-4.06
441.55,-1.12,2.91,-1.11,2.93,-2.93,-3.82,-2.82,-4.05,-4.04,-4.03
445.96,-1.09,2.92,-1.06,2.95,-2.95,-3.78,-2.81,-4.04,-4.01,-4.01
450.42,-1.02,2.98,-1.01,2.97,-2.97,-3.75,-2.79,-3.99,-3.99,-4.00
454.93,-0.97,2.99,-0.97,2.99,-2.99,-3.71,-2.77,-3.97,-3.96,-3.96
459.48,-0.91,3.03,-0.92,3.01,-3.01,-3.68,-2.76,-3.93,-3.93,-3.94
