frequency,raw,error,smoothed,error_smoothed,equalization,parametric_eq,fixed_band_eq,equalized_raw,equalized_smoothed,target
20.00,-17.10,-18.34,-17.17,-18.44,18.44,15.81,6.26,1.34,1.27,1.24
20.20,-16.98,-18.27,-17.02,-18.33,18.33,16.04,6.40,1.35,1.31,1.29
20.40,-16.86,-18.20,-16.87,-18.21,18.21,16.27,6.55,1.35,1.34,1.34
20.61,-16.74,-18.11,-16.71,-18.09,18.09,16.49,6.70,1.34,1.37,1.37
20.81,-16.62,-18.04,-16.56,-17.96,17.96,16.69,6.86,1.34,1.40,1.42
21.02,-16.49,-17.95,-16.41,-17.84,17.84,16.88,7.02,1.35,1.43,1.46
21.23,-16.31,-17.79,-16.25,-17.71,17.71,17.06,7.19,1.40,1.46,1.48
21.44,-16.13,-17.63,-16.10,-17.58,17.58,17.21,7.36,1.45,1.48,1.50
21.66,-15.95,-17.47,-15.95,-17.45,17.45,17.34,7.53,1.49,1.50,1.52
21.87,-15.77,-17.30,-15.80,-17.31,17.31,17.45,7.71,1.55,1.52,1.53
22.09,-15.60,-17.15,-15.65,-17.18,17.18,17.53,7.89,1.58,1.53,1.55
22.31,-15.45,-17.00,-15.49,-17.04,17.04,17.58,8.08,1.59,1.55,1.56
22.54,-15.31,-16.87,-15.34,-16.89,16.89,17.61,8.27,1.58,1.55,1.55
22.76,-15.16,-16.71,-15.18,-16.74,16.74,17.60,8.47,1.58,1.55,1.55
22.99,-15.02,-16.57,-15.03,-16.58,16.58,17.56,8.67,1.56,1.56,1.54
23.22,-14.88,-16.42,-14.88,-16.43,16.43,17.50,8.88,1.55,1.56,1.54
23.45,-14.74,-16.28,-14.73,-16.29,16.29,17.41,9.09,1.55,1.56,1.54
23.69,-14.60,-16.15,-14.59,-16.14,16.14,17.29,9.31,1.54,1.56,1.55
23.92,-14.46,-16.01,-14.44,-16.00,16.00,17.15,9.54,1.54,1.56,1.55
24.16,-14.31,-15.87,-14.30,-15.85,15.85,16.99,9.77,1.54,1.56,1.56
24.40,-14.15,-15.72,-14.15,-15.71,15.71,16.80,10.01,1.56,1.56,1.57
24.65,-14.00,-15.56,-14.00,-15.55,15.55,16.61,10.25,1.55,1.56,1.56
24.89,-13.85,-15.41,-13.84,-15.40,15.40,16.39,10.50,1.55,1.56,1.56
25.14,-13.69,-15.25,-13.68,-15.24,15.24,16.17,10.75,1.55,1.56,1.56
25.39,-13.53,-15.09,-13.53,-15.08,15.08,15.94,11.01,1.56,1.56,1.56
25.65,-13.38,-14.95,-13.37,-14.93,14.93,15.70,11.27,1.55,1.56,1.56
25.91,-13.22,-14.78,-13.21,-14.77,14.77,15.45,11.54,1.55,1.56,1.55
26.16,-13.05,-14.60,-13.06,-14.61,14.61,15.21,11.81,1.57,1.56,1.55
26.43,-12.88,-14.43,-12.91,-14.46,14.46,14.95,12.09,1.58,1.55,1.55
26.69,-12.72,-14.27,-12.76,-14.31,14.31,14.70,12.37,1.59,1.55,1.55
26.96,-12.55,-14.11,-12.61,-14.15,14.15,14.45,12.65,1.60,1.55,1.56
27.23,-12.41,-13.97,-12.45,-14.00,14.00,14.20,12.94,1.58,1.55,1.56
27.50,-12.28,-13.84,-12.29,-13.84,13.84,13.95,13.22,1.55,1.55,1.55
27.77,-12.15,-13.69,-12.13,-13.67,13.67,13.70,13.50,1.52,1.54,1.54
28.05,-12.01,-13.55,-11.97,-13.51,13.51,13.45,13.78,1.50,1.54,1.54
28.33,-11.86,-13.39,-11.81,-13.35,13.35,13.21,14.05,1.49,1.54,1.53
28.62,-11.70,-13.23,-11.65,-13.19,13.19,12.97,14.30,1.48,1.54,1.53
28.90,-11.54,-13.08,-11.48,-13.02,13.02,12.74,14.55,1.48,1.54,1.54
29.19,-11.35,-12.88,-11.32,-12.85,12.85,12.50,14.78,1.50,1.54,1.52
29.48,-11.14,-12.68,-11.15,-12.69,12.69,12.28,14.99,1.55,1.53,1.54
29.78,-10.93,-12.46,-10.99,-12.52,12.52,12.05,15.17,1.59,1.53,1.53
30.08,-10.74,-12.28,-10.83,-12.36,12.36,11.83,15.32,1.61,1.53,1.54
30.38,-10.61,-12.14,-10.67,-12.20,12.20,11.61,15.44,1.59,1.53,1.53
30.68,-10.49,-12.02,-10.51,-12.04,12.04,11.40,15.52,1.55,1.52,1.52
30.99,-10.37,-11.90,-10.35,-11.87,11.87,11.19,15.57,1.50,1.52,1.52
31.30,-10.20,-11.72,-10.19,-11.71,11.71,10.99,15.58,1.51,1.52,1.52
31.61,-10.03,-11.55,-10.04,-11.55,11.55,10.78,15.54,1.52,1.52,1.52
31.93,-9.86,-11.38,-9.89,-11.40,11.40,10.59,15.47,1.53,1.51,1.51
32.24,-9.74,-11.24,-9.74,-11.25,11.25,10.39,15.35,1.51,1.51,1.50
32.57,-9.63,-11.14,-9.59,-11.10,11.10,10.20,15.21,1.47,1.50,1.51
32.89,-9.52,-11.03,-9.45,-10.95,10.95,10.02,15.03,1.43,1.50,1.51
33.22,-9.35,-10.84,-9.30,-10.79,10.79,9.83,14.82,1.44,1.49,1.49
33.55,-9.13,-10.62,-9.14,-10.63,10.63,9.65,14.59,1.50,1.49,1.49
33.89,-8.92,-10.40,-8.99,-10.47,10.47,9.48,14.34,1.55,1.48,1.48
34.23,-8.78,-10.27,-8.83,-10.31,10.31,9.31,14.08,1.52,1.48,1.48
34.57,-8.67,-10.14,-8.67,-10.15,10.15,9.14,13.80,1.48,1.47,1.47
34.92,-8.56,-10.03,-8.52,-9.99,9.99,8.97,13.51,1.43,1.47,1.47
35.27,-8.39,-9.86,-8.37,-9.83,9.83,8.81,13.22,1.44,1.46,1.46
35.62,-8.20,-9.66,-8.21,-9.67,9.67,8.65,12.92,1.47,1.46,1.46
35.97,-8.01,-9.46,-8.05,-9.50,9.50,8.49,12.63,1.50,1.46,1.45
36.33,-7.87,-9.33,-7.89,-9.34,9.34,8.34,12.33,1.47,1.46,1.46
36.70,-7.73,-9.18,-7.73,-9.19,9.19,8.18,12.03,1.46,1.45,1.45
37.06,-7.59,-9.03,-7.59,-9.04,9.04,8.04,11.74,1.45,1.45,1.44
37.43,-7.45,-8.91,-7.44,-8.89,8.89,7.89,11.44,1.44,1.45,1.46
37.81,-7.31,-8.76,-7.28,-8.73,8.73,7.75,11.16,1.42,1.45,1.45
38.19,-7.15,-8.60,-7.12,-8.57,8.57,7.61,10.87,1.42,1.45,1.45
38.57,-6.95,-8.40,-6.96,-8.41,8.41,7.47,10.59,1.46,1.45,1.45
38.95,-6.76,-8.22,-6.80,-8.25,8.25,7.33,10.32,1.49,1.45,1.46
39.34,-6.64,-8.09,-6.65,-8.10,8.10,7.20,10.05,1.46,1.45,1.45
39.74,-6.52,-7.97,-6.50,-7.94,7.94,7.07,9.79,1.42,1.45,1.44
40.14,-6.38,-7.83,-6.35,-7.79,7.79,6.94,9.53,1.41,1.44,1.45
40.54,-6.21,-7.65,-6.19,-7.64,7.64,6.81,9.28,1.42,1.44,1.44
40.94,-6.03,-7.47,-6.04,-7.48,7.48,6.69,9.03,1.45,1.44,1.43
41.35,-5.87,-7.30,-5.90,-7.33,7.33,6.56,8.79,1.46,1.43,1.43
41.76,-5.71,-7.13,-5.75,-7.17,7.17,6.44,8.55,1.46,1.42,1.42
42.18,-5.57,-6.99,-5.61,-7.02,7.02,6.33,8.32,1.45,1.41,1.42
42.60,-5.46,-6.87,-5.47,-6.87,6.87,6.21,8.09,1.41,1.40,1.40
43.03,-5.35,-6.75,-5.33,-6.72,6.72,6.09,7.87,1.37,1.39,1.40
43.46,-5.22,-6.61,-5.19,-6.57,6.57,5.98,7.66,1.35,1.37,1.39
43.90,-5.09,-6.45,-5.05,-6.42,6.42,5.87,7.44,1.32,1.36,1.36
44.33,-4.95,-6.29,-4.92,-6.27,6.27,5.76,7.23,1.32,1.35,1.34
44.78,-4.81,-6.13,-4.80,-6.13,6.13,5.66,7.03,1.32,1.33,1.32
45.23,-4.67,-5.98,-4.67,-5.99,5.99,5.55,6.83,1.32,1.32,1.31
45.68,-4.54,-5.83,-4.56,-5.86,5.86,5.45,6.63,1.31,1.30,1.29
46.13,-4.41,-5.68,-4.43,-5.71,5.71,5.34,6.44,1.30,1.28,1.27
46.60,-4.26,-5.53,-4.30,-5.56,5.56,5.24,6.25,1.30,1.27,1.27
47.06,-4.12,-5.37,-4.18,-5.43,5.43,5.14,6.07,1.31,1.25,1.25
47.53,-4.06,-5.30,-4.07,-5.30,5.30,5.05,5.89,1.24,1.23,1.24
48.01,-4.00,-5.24,-3.96,-5.18,5.18,4.95,5.71,1.17,1.22,1.24
48.49,-3.88,-5.09,-3.85,-5.05,5.05,4.86,5.54,1.17,1.20,1.21
48.97,-3.76,-4.95,-3.74,-4.93,4.93,4.76,5.36,1.17,1.19,1.19
49.46,-3.63,-4.80,-3.64,-4.81,4.81,4.67,5.20,1.18,1.17,1.17
49.96,-3.50,-4.64,-3.53,-4.68,4.68,4.58,5.03,1.18,1.15,1.14
50.46,-3.37,-4.51,-3.42,-4.56,4.56,4.49,4.87,1.18,1.14,1.14
50.96,-3.24,-4.36,-3.31,-4.44,4.44,4.41,4.71,1.19,1.12,1.12
51.47,-3.27,-4.37,-3.21,-4.32,4.32,4.32,4.56,1.04,1.11,1.10
51.99,-3.32,-4.40,-3.10,-4.19,4.19,4.23,4.41,0.87,1.09,1.08
52.51,-3.06,-4.14,-3.00,-4.08,4.08,4.15,4.26,1.01,1.08,1.08
53.03,-2.81,-3.88,-2.90,-3.96,3.96,4.07,4.11,1.15,1.06,1.07
53.56,-2.74,-3.79,-2.80,-3.85,3.85,3.99,3.97,1.11,1.05,1.05
54.10,-2.66,-3.69,-2.71,-3.74,3.74,3.91,3.83,1.08,1.03,1.03
54.64,-2.57,-3.59,-2.62,-3.64,3.64,3.83,3.70,1.07,1.02,1.01
55.18,-2.50,-3.51,-2.54,-3.55,3.55,3.75,3.56,1.05,1.00,1.00
55.74,-2.46,-3.45,-2.47,-3.46,3.46,3.67,3.44,1.00,0.99,0.98
56.29,-2.40,-3.37,-2.39,-3.36,3.36,3.60,3.31,0.96,0.97,0.97
56.86,-2.32,-3.27,-2.31,-3.27,3.27,3.52,3.19,0.94,0.95,0.95
57.42,-2.27,-3.19,-2.23,-3.16,3.16,3.45,3.07,0.89,0.93,0.92
58.00,-2.24,-3.15,-2.17,-3.08,3.08,3.38,2.95,0.84,0.91,0.91
58.58,-2.12,-3.01,-2.13,-3.01,3.01,3.30,2.84,0.89,0.88,0.89
59.16,-2.04,-2.91,-2.09,-2.94,2.94,3.23,2.73,0.90,0.85,0.87
59.76,-2.02,-2.86,-2.03,-2.86,2.86,3.16,2.63,0.83,0.82,0.84
60.35,-2.00,-2.80,-1.98,-2.77,2.77,3.09,2.53,0.77,0.79,0.80
60.96,-1.99,-2.75,-1.93,-2.68,2.68,3.03,2.43,0.69,0.75,0.76
61.57,-1.86,-2.58,-1.90,-2.61,2.61,2.96,2.34,0.74,0.71,0.71
62.18,-1.76,-2.43,-1.86,-2.52,2.52,2.89,2.25,0.76,0.67,0.66
62.80,-1.75,-2.37,-1.81,-2.43,2.43,2.83,2.17,0.68,0.62,0.62
63.43,-1.81,-2.38,-1.78,-2.35,2.35,2.76,2.09,0.54,0.57,0.57
64.07,-1.88,-2.40,-1.74,-2.27,2.27,2.70,2.01,0.39,0.52,0.51
64.71,-1.72,-2.18,-1.71,-2.18,2.18,2.64,1.93,0.46,0.47,0.46
65.35,-1.64,-2.06,-1.68,-2.10,2.10,2.57,1.86,0.46,0.42,0.42
66.01,-1.64,-2.01,-1.65,-2.01,2.01,2.51,1.79,0.37,0.37,0.37
66.67,-1.64,-1.95,-1.61,-1.93,1.93,2.45,1.73,0.29,0.31,0.31
67.33,-1.64,-1.90,-1.59,-1.85,1.85,2.39,1.67,0.21,0.26,0.26
68.01,-1.64,-1.85,-1.58,-1.78,1.78,2.33,1.61,0.14,0.21,0.21
68.69,-1.46,-1.61,-1.57,-1.72,1.72,2.28,1.55,0.26,0.15,0.15
69.37,-1.47,-1.57,-1.57,-1.66,1.66,2.22,1.50,0.19,0.09,0.09
70.07,-1.60,-1.64,-1.57,-1.60,1.60,2.16,1.45,-0.00,0.03,0.03
70.77,-1.50,-1.49,-1.56,-1.53,1.53,2.10,1.40,0.03,-0.03,-0.02
71.48,-1.50,-1.42,-1.56,-1.47,1.47,2.05,1.35,-0.03,-0.09,-0.08
72.19,-1.54,-1.39,-1.56,-1.41,1.41,1.99,1.31,-0.13,-0.15,-0.15
72.91,-1.54,-1.33,-1.56,-1.35,1.35,1.94,1.26,-0.19,-0.21,-0.21
73.64,-1.66,-1.39,-1.58,-1.30,1.30,1.89,1.22,-0.36,-0.28,-0.28
74.38,-1.72,-1.38,-1.60,-1.26,1.26,1.83,1.18,-0.47,-0.34,-0.34
75.12,-1.71,-1.30,-1.61,-1.21,1.21,1.78,1.14,-0.50,-0.40,-0.41
75.87,-1.65,-1.18,-1.63,-1.16,1.16,1.73,1.10,-0.49,-0.46,-0.47
76.63,-1.64,-1.11,-1.66,-1.13,1.13,1.68,1.07,-0.51,-0.53,-0.53
77.40,-1.59,-1.00,-1.67,-1.09,1.09,1.62,1.03,-0.51,-0.59,-0.59
78.17,-1.54,-0.88,-1.69,-1.04,1.04,1.57,0.99,-0.50,-0.65,-0.66
78.95,-1.61,-0.91,-1.72,-1.02,1.02,1.52,0.96,-0.60,-0.71,-0.70
79.74,-1.74,-0.98,-1.75,-0.99,0.99,1.47,0.92,-0.76,-0.76,-0.76
80.54,-1.89,-1.07,-1.78,-0.95,0.95,1.43,0.89,-0.94,-0.82,-0.82
81.35,-1.90,-1.02,-1.78,-0.91,0.91,1.38,0.85,-1.00,-0.88,-0.88
82.16,-1.75,-0.82,-1.79,-0.85,0.85,1.33,0.82,-0.90,-0.93,-0.94
82.98,-1.75,-0.77,-1.81,-0.82,0.82,1.28,0.79,-0.94,-0.99,-0.98
83.81,-1.90,-0.85,-1.84,-0.79,0.79,1.23,0.75,-1.11,-1.05,-1.05
84.65,-1.94,-0.84,-1.87,-0.77,0.77,1.19,0.72,-1.17,-1.10,-1.11
85.50,-1.94,-0.79,-1.90,-0.74,0.74,1.14,0.69,-1.20,-1.16,-1.15
86.35,-1.94,-0.73,-1.93,-0.71,0.71,1.09,0.65,-1.23,-1.22,-1.21
87.22,-1.94,-0.67,-1.95,-0.68,0.68,1.05,0.62,-1.26,-1.28,-1.27
88.09,-1.93,-0.60,-1.97,-0.63,0.63,1.00,0.59,-1.30,-1.34,-1.33
88.97,-1.82,-0.43,-1.98,-0.58,0.58,0.96,0.55,-1.24,-1.40,-1.39
89.86,-1.82,-0.37,-2.00,-0.54,0.54,0.91,0.52,-1.28,-1.46,-1.46
90.76,-2.09,-0.57,-2.03,-0.51,0.51,0.87,0.49,-1.58,-1.51,-1.52
91.66,-2.22,-0.65,-2.06,-0.49,0.49,0.83,0.45,-1.73,-1.57,-1.57
92.58,-2.19,-0.55,-2.08,-0.45,0.45,0.78,0.42,-1.74,-1.63,-1.65
93.51,-2.14,-0.44,-2.11,-0.41,0.41,0.74,0.38,-1.73,-1.69,-1.70
94.44,-2.14,-0.39,-2.14,-0.39,0.39,0.70,0.35,-1.75,-1.75,-1.75
95.39,-2.14,-0.33,-2.19,-0.38,0.38,0.65,0.31,-1.76,-1.81,-1.81
96.34,-2.16,-0.29,-2.24,-0.37,0.37,0.61,0.28,-1.79,-1.87,-1.88
97.30,-2.23,-0.30,-2.28,-0.35,0.35,0.57,0.24,-1.89,-1.93,-1.93
98.28,-2.30,-0.31,-2.30,-0.32,0.32,0.53,0.21,-1.98,-1.99,-1.99
99.26,-2.37,-0.33,-2.35,-0.30,0.30,0.49,0.17,-2.07,-2.04,-2.04
100.25,-2.39,-0.29,-2.38,-0.28,0.28,0.45,0.14,-2.11,-2.10,-2.10
101.25,-2.41,-0.25,-2.41,-0.25,0.25,0.41,0.10,-2.16,-2.16,-2.16
102.27,-2.45,-0.23,-2.45,-0.23,0.23,0.36,0.07,-2.22,-2.22,-2.22
103.29,-2.59,-0.31,-2.51,-0.23,0.23,0.32,0.03,-2.36,-2.28,-2.28
104.32,-2.66,-0.33,-2.57,-0.23,0.23,0.28,-0.00,-2.43,-2.34,-2.33
105.37,-2.59,-0.20,-2.63,-0.23,0.23,0.24,-0.04,-2.36,-2.40,-2.39
106.42,-2.52,-0.07,-2.69,-0.23,0.23,0.20,-0.07,-2.29,-2.46,-2.45
107.48,-2.53,-0.02,-2.73,-0.21,0.21,0.17,-0.10,-2.32,-2.52,-2.52
108.56,-2.81,-0.23,-2.78,-0.20,0.20,0.13,-0.14,-2.61,-2.58,-2.58
109.64,-2.99,-0.35,-2.84,-0.19,0.19,0.09,-0.17,-2.80,-2.64,-2.64
110.74,-2.93,-0.22,-2.90,-0.19,0.19,0.05,-0.20,-2.74,-2.71,-2.71
111.85,-2.94,-0.19,-2.96,-0.20,0.20,0.01,-0.23,-2.74,-2.77,-2.76
112.97,-3.02,-0.19,-3.02,-0.19,0.19,-0.03,-0.26,-2.83,-2.83,-2.83
114.10,-3.09,-0.20,-3.07,-0.18,0.18,-0.07,-0.29,-2.91,-2.89,-2.89
115.24,-3.13,-0.19,-3.11,-0.17,0.17,-0.10,-0.32,-2.97,-2.94,-2.94
116.39,-3.12,-0.11,-3.15,-0.15,0.15,-0.14,-0.35,-2.97,-3.00,-3.01
117.55,-3.12,-0.07,-3.19,-0.14,0.14,-0.18,-0.37,-2.98,-3.05,-3.06
118.73,-3.17,-0.06,-3.21,-0.11,0.11,-0.22,-0.40,-3.06,-3.10,-3.11
119.92,-3.35,-0.21,-3.22,-0.07,0.07,-0.25,-0.42,-3.28,-3.15,-3.15
121.12,-3.32,-0.12,-3.21,-0.02,0.02,-0.29,-0.44,-3.30,-3.19,-3.20
122.33,-3.29,-0.05,-3.21,0.02,-0.02,-0.32,-0.47,-3.32,-3.24,-3.24
123.55,-3.23,0.04,-3.22,0.06,-0.06,-0.36,-0.48,-3.29,-3.28,-3.28
124.79,-3.09,0.23,-3.21,0.11,-0.11,-0.40,-0.50,-3.21,-3.32,-3.32
126.03,-3.17,0.19,-3.19,0.17,-0.17,-0.43,-0.52,-3.34,-3.36,-3.36
127.29,-3.17,0.22,-3.18,0.22,-0.22,-0.47,-0.53,-3.39,-3.40,-3.39
128.57,-3.16,0.28,-3.17,0.27,-0.27,-0.50,-0.55,-3.43,-3.44,-3.44
129.85,-3.15,0.33,-3.17,0.31,-0.31,-0.54,-0.56,-3.46,-3.48,-3.48
131.15,-3.15,0.37,-3.17,0.35,-0.35,-0.57,-0.57,-3.50,-3.52,-3.52
132.46,-3.14,0.41,-3.16,0.39,-0.39,-0.61,-0.58,-3.53,-3.55,-3.55
133.79,-3.14,0.45,-3.16,0.43,-0.43,-0.64,-0.59,-3.57,-3.59,-3.59
135.12,-3.14,0.50,-3.17,0.46,-0.46,-0.67,-0.60,-3.60,-3.63,-3.64
136.48,-3.13,0.53,-3.18,0.48,-0.48,-0.71,-0.60,-3.61,-3.66,-3.66
137.84,-3.13,0.57,-3.20,0.50,-0.50,-0.74,-0.61,-3.63,-3.70,-3.71
139.22,-3.25,0.50,-3.22,0.52,-0.52,-0.77,-0.61,-3.77,-3.74,-3.75
140.61,-3.35,0.44,-3.23,0.55,-0.55,-0.81,-0.62,-3.90,-3.77,-3.79
142.02,-3.28,0.53,-3.22,0.59,-0.59,-0.84,-0.62,-3.88,-3.82,-3.81
143.44,-3.24,0.61,-3.21,0.65,-0.65,-0.87,-0.62,-3.89,-3.86,-3.85
144.87,-3.23,0.67,-3.21,0.70,-0.70,-0.90,-0.62,-3.93,-3.90,-3.90
146.32,-3.23,0.72,-3.21,0.75,-0.75,-0.93,-0.63,-3.98,-3.96,-3.95
147.78,-3.23,0.76,-3.21,0.81,-0.81,-0.96,-0.63,-4.04,-4.01,-3.99
149.26,-3.23,0.81,-3.20,0.87,-0.87,-0.99,-0.63,-4.10,-4.08,-4.04
150.75,-3.23,0.89,-3.21,0.93,-0.93,-1.02,-0.63,-4.16,-4.14,-4.12
152.26,-3.23,0.96,-3.23,0.98,-0.98,-1.05,-0.63,-4.21,-4.21,-4.19
153.78,-3.23,1.04,-3.26,1.03,-1.03,-1.08,-0.63,-4.26,-4.29,-4.27
155.32,-3.13,1.22,-3.30,1.06,-1.06,-1.11,-0.64,-4.19,-4.36,-4.35
156.88,-3.08,1.35,-3.37,1.07,-1.07,-1.14,-0.64,-4.15,-4.44,-4.43
158.44,-3.35,1.17,-3.45,1.07,-1.07,-1.16,-0.64,-4.42,-4.52,-4.52
160.03,-3.57,1.04,-3.52,1.07,-1.07,-1.19,-0.64,-4.64,-4.59,-4.61
161.63,-3.56,1.13,-3.59,1.07,-1.07,-1.22,-0.65,-4.63,-4.67,-4.69
163.24,-3.60,1.16,-3.66,1.08,-1.08,-1.24,-0.65,-4.68,-4.73,-4.76
164.88,-3.74,1.07,-3.72,1.08,-1.08,-1.27,-0.66,-4.82,-4.80,-4.81
166.53,-3.96,0.91,-3.76,1.09,-1.09,-1.29,-0.66,-5.05,-4.85,-4.87
168.19,-4.00,0.91,-3.81,1.09,-1.09,-1.32,-0.67,-5.09,-4.90,-4.91
169.87,-4.02,0.94,-3.85,1.09,-1.09,-1.34,-0.67,-5.11,-4.94,-4.96
171.57,-4.09,0.89,-3.87,1.09,-1.09,-1.36,-0.68,-5.18,-4.97,-4.98
173.29,-3.91,1.09,-3.89,1.11,-1.11,-1.38,-0.69,-5.02,-4.99,-5.00
175.02,-3.77,1.24,-3.87,1.14,-1.14,-1.40,-0.69,-4.92,-5.01,-5.01
176.77,-3.70,1.33,-3.83,1.20,-1.20,-1.42,-0.70,-4.90,-5.03,-5.03
178.54,-3.67,1.37,-3.80,1.24,-1.24,-1.44,-0.71,-4.91,-5.04,-5.04
180.32,-3.67,1.37,-3.76,1.29,-1.29,-1.46,-0.72,-4.96,-5.05,-5.04
182.13,-3.66,1.38,-3.72,1.35,-1.35,-1.48,-0.73,-5.01,-5.06,-5.04
183.95,-3.65,1.41,-3.67,1.41,-1.41,-1.49,-0.74,-5.06,-5.07,-5.06
185.79,-3.77,1.29,-3.62,1.46,-1.46,-1.51,-0.76,-5.23,-5.09,-5.06
187.65,-3.66,1.43,-3.60,1.50,-1.50,-1.52,-0.77,-5.16,-5.10,-5.09
189.52,-3.54,1.56,-3.58,1.53,-1.53,-1.54,-0.78,-5.08,-5.11,-5.10
191.42,-3.50,1.63,-3.57,1.56,-1.56,-1.55,-0.80,-5.06,-5.13,-5.13
193.33,-3.50,1.65,-3.58,1.57,-1.57,-1.56,-0.81,-5.08,-5.15,-5.15
195.27,-3.63,1.54,-3.58,1.59,-1.59,-1.57,-0.83,-5.22,-5.17,-5.17
197.22,-3.57,1.62,-3.58,1.61,-1.61,-1.58,-0.84,-5.18,-5.19,-5.19
199.19,-3.50,1.72,-3.59,1.63,-1.63,-1.59,-0.86,-5.13,-5.22,-5.23
201.18,-3.59,1.65,-3.59,1.65,-1.65,-1.59,-0.87,-5.25,-5.24,-5.25
203.19,-3.63,1.63,-3.60,1.67,-1.67,-1.60,-0.89,-5.30,-5.27,-5.27
205.23,-3.63,1.66,-3.60,1.69,-1.69,-1.60,-0.91,-5.32,-5.29,-5.29
207.28,-3.63,1.67,-3.60,1.71,-1.71,-1.60,-0.92,-5.35,-5.32,-5.30
209.35,-3.63,1.70,-3.61,1.72,-1.72,-1.61,-0.94,-5.36,-5.34,-5.33
211.44,-3.64,1.73,-3.62,1.73,-1.73,-1.61,-0.96,-5.38,-5.36,-5.37
213.56,-3.64,1.73,-3.63,1.75,-1.75,-1.60,-0.97,-5.39,-5.38,-5.37
215.69,-3.64,1.75,-3.64,1.75,-1.75,-1.60,-0.99,-5.40,-5.39,-5.39
217.85,-3.65,1.75,-3.64,1.77,-1.77,-1.60,-1.01,-5.42,-5.41,-5.41
220.03,-3.65,1.77,-3.65,1.77,-1.77,-1.59,-1.03,-5.42,-5.42,-5.42
222.23,-3.65,1.79,-3.65,1.78,-1.78,-1.59,-1.04,-5.43,-5.43,-5.45
224.45,-3.62,1.82,-3.65,1.79,-1.79,-1.58,-1.06,-5.41,-5.43,-5.44
226.70,-3.54,1.90,-3.65,1.79,-1.79,-1.57,-1.07,-5.33,-5.44,-5.44
228.96,-3.62,1.81,-3.65,1.78,-1.78,-1.55,-1.09,-5.40,-5.43,-5.44
231.25,-3.71,1.72,-3.65,1.78,-1.78,-1.54,-1.10,-5.49,-5.43,-5.43
233.57,-3.73,1.69,-3.66,1.76,-1.76,-1.52,-1.11,-5.49,-5.42,-5.42
235.90,-3.72,1.69,-3.67,1.74,-1.74,-1.51,-1.13,-5.46,-5.41,-5.41
238.26,-3.70,1.70,-3.67,1.72,-1.72,-1.49,-1.14,-5.42,-5.39,-5.40
240.64,-3.62,1.76,-3.68,1.69,-1.69,-1.47,-1.15,-5.32,-5.38,-5.39
243.05,-3.65,1.70,-3.69,1.67,-1.67,-1.44,-1.15,-5.32,-5.36,-5.36
245.48,-3.72,1.61,-3.70,1.64,-1.64,-1.42,-1.16,-5.36,-5.34,-5.34
247.93,-3.72,1.58,-3.72,1.60,-1.60,-1.39,-1.17,-5.32,-5.32,-5.31
250.41,-3.71,1.58,-3.74,1.56,-1.56,-1.36,-1.17,-5.27,-5.30,-5.30
252.92,-3.74,1.52,-3.76,1.51,-1.51,-1.33,-1.18,-5.26,-5.27,-5.26
255.45,-3.78,1.46,-3.78,1.48,-1.48,-1.30,-1.18,-5.26,-5.25,-5.24
258.00,-3.84,1.38,-3.79,1.43,-1.43,-1.26,-1.18,-5.28,-5.23,-5.22
260.58,-3.83,1.38,-3.83,1.38,-1.38,-1.22,-1.18,-5.21,-5.21,-5.21
263.19,-3.81,1.37,-3.86,1.32,-1.32,-1.18,-1.18,-5.13,-5.18,-5.18
265.82,-3.90,1.26,-3.90,1.26,-1.26,-1.14,-1.18,-5.16,-5.16,-5.17
268.48,-3.91,1.23,-3.94,1.20,-1.20,-1.10,-1.17,-5.11,-5.14,-5.14
271.16,-4.02,1.09,-3.98,1.13,-1.13,-1.05,-1.17,-5.16,-5.11,-5.11
273.87,-4.07,1.02,-4.02,1.07,-1.07,-1.00,-1.16,-5.14,-5.09,-5.10
276.61,-4.04,1.02,-4.08,0.99,-0.99,-0.95,-1.16,-5.03,-5.06,-5.06
279.38,-4.11,0.93,-4.14,0.90,-0.90,-0.89,-1.15,-5.01,-5.04,-5.04
282.17,-4.17,0.84,-4.19,0.82,-0.82,-0.84,-1.15,-4.99,-5.01,-5.02
284.99,-4.23,0.75,-4.25,0.73,-0.73,-0.78,-1.14,-4.96,-4.99,-4.98
287.84,-4.31,0.66,-4.32,0.64,-0.64,-0.72,-1.13,-4.95,-4.96,-4.97
290.72,-4.35,0.58,-4.38,0.55,-0.55,-0.65,-1.12,-4.90,-4.93,-4.93
293.63,-4.39,0.52,-4.44,0.46,-0.46,-0.59,-1.11,-4.86,-4.90,-4.91
296.57,-4.50,0.37,-4.49,0.38,-0.38,-0.52,-1.11,-4.88,-4.87,-4.87
299.53,-4.60,0.25,-4.54,0.30,-0.30,-0.46,-1.10,-4.91,-4.85,-4.85
302.53,-4.67,0.16,-4.59,0.23,-0.23,-0.39,-1.09,-4.90,-4.82,-4.83
305.55,-4.70,0.08,-4.65,0.15,-0.15,-0.32,-1.08,-4.85,-4.80,-4.79
308.61,-4.69,0.08,-4.70,0.07,-0.07,-0.25,-1.07,-4.77,-4.77,-4.77
311.69,-4.73,0.01,-4.74,0.01,-0.01,-0.18,-1.07,-4.74,-4.75,-4.74
314.81,-4.77,-0.05,-4.78,-0.05,0.05,-0.12,-1.06,-4.73,-4.73,-4.72
317.96,-4.77,-0.07,-4.81,-0.10,0.10,-0.05,-1.05,-4.68,-4.71,-4.70
321.14,-4.77,-0.08,-4.83,-0.14,0.14,0.01,-1.05,-4.63,-4.69,-4.70
324.35,-4.82,-0.14,-4.85,-0.18,0.18,0.07,-1.04,-4.64,-4.68,-4.68
327.59,-4.89,-0.23,-4.87,-0.21,0.21,0.12,-1.04,-4.68,-4.66,-4.66
330.87,-4.89,-0.24,-4.89,-0.24,0.24,0.17,-1.03,-4.66,-4.65,-4.66
334.18,-4.92,-0.28,-4.89,-0.25,0.25,0.21,-1.03,-4.67,-4.64,-4.64
337.52,-4.98,-0.35,-4.89,-0.26,0.26,0.25,-1.03,-4.72,-4.63,-4.63
340.90,-4.87,-0.26,-4.90,-0.28,0.28,0.28,-1.03,-4.59,-4.62,-4.62
344.30,-4.85,-0.24,-4.90,-0.28,0.28,0.30,-1.02,-4.57,-4.62,-4.61
347.75,-4.87,-0.26,-4.88,-0.27,0.27,0.31,-1.02,-4.60,-4.61,-4.61
351.23,-4.88,-0.28,-4.87,-0.26,0.26,0.32,-1.02,-4.62,-4.61,-4.60
354.74,-4.88,-0.28,-4.86,-0.25,0.25,0.31,-1.02,-4.63,-4.60,-4.61
358.28,-4.87,-0.27,-4.84,-0.24,0.24,0.30,-1.03,-4.63,-4.60,-4.60
361.87,-4.80,-0.20,-4.81,-0.21,0.21,0.28,-1.03,-4.60,-4.60,-4.60
365.49,-4.74,-0.15,-4.77,-0.17,0.17,0.25,-1.03,-4.57,-4.60,-4.59
369.14,-4.67,-0.07,-4.73,-0.13,0.13,0.22,-1.04,-4.54,-4.60,-4.61
372.83,-4.70,-0.09,-4.69,-0.08,0.08,0.17,-1.04,-4.62,-4.60,-4.61
376.56,-4.68,-0.07,-4.64,-0.04,0.04,0.12,-1.05,-4.65,-4.60,-4.61
380.33,-4.55,0.05,-4.60,0.01,-0.01,0.07,-1.05,-4.56,-4.61,-4.60
384.13,-4.55,0.05,-4.55,0.07,-0.07,0.01,-1.06,-4.62,-4.61,-4.60
387.97,-4.56,0.05,-4.49,0.13,-0.13,-0.06,-1.07,-4.69,-4.62,-4.61
391.85,-4.48,0.14,-4.43,0.19,-0.19,-0.13,-1.08,-4.67,-4.62,-4.63
395.77,-4.34,0.28,-4.38,0.25,-0.25,-0.20,-1.09,-4.59,-4.63,-4.62
399.73,-4.24,0.39,-4.32,0.31,-0.31,-0.27,-1.10,-4.56,-4.63,-4.63
403.72,-4.23,0.40,-4.27,0.37,-0.37,-0.35,-1.11,-4.61,-4.64,-4.63
407.76,-4.20,0.44,-4.21,0.44,-0.44,-0.43,-1.12,-4.64,-4.64,-4.64
411.84,-4.14,0.50,-4.14,0.50,-0.50,-0.50,-1.13,-4.65,-4.65,-4.64
415.96,-4.06,0.58,-4.07,0.57,-0.57,-0.58,-1.14,-4.64,-4.65,-4.65
420.12,-4.00,0.65,-4.00,0.64,-0.64,-0.66,-1.16,-4.65,-4.65,-4.65
424.32,-3.94,0.71,-3.93,0.72,-0.72,-0.73,-1.17,-4.66,-4.64,-4.65
428.56,-3.84,0.80,-3.84,0.80,-0.80,-0.81,-1.19,-4.64,-4.63,-4.64
432.85,-3.77,0.86,-3.74,0.87,-0.87,-0.88,-1.20,-4.64,-4.62,-4.63
