frequency,raw,error,smoothed,error_smoothed,equalization,parametric_eq,fixed_band_eq,equalized_raw,equalized_smoothed,target
20.00,-2.66,-8.43,-2.71,-8.50,8.50,7.91,2.72,5.84,5.80,5.77
20.20,-2.59,-8.41,-2.62,-8.45,8.45,7.88,2.80,5.86,5.83,5.82
20.40,-2.53,-8.40,-2.52,-8.39,8.39,7.85,2.88,5.86,5.87,5.87
20.61,-2.47,-8.36,-2.43,-8.34,8.34,7.82,2.96,5.87,5.90,5.90
20.81,-2.39,-8.34,-2.35,-8.28,8.28,7.79,3.05,5.89,5.93,5.95
21.02,-2.32,-8.31,-2.26,-8.22,8.22,7.76,3.14,5.90,5.96,5.99
21.23,-2.21,-8.22,-2.18,-8.17,8.17,7.72,3.23,5.95,5.99,6.01
21.44,-2.10,-8.13,-2.10,-8.11,8.11,7.69,3.32,6.00,6.01,6.03
21.66,-2.00,-8.04,-2.02,-8.05,8.05,7.66,3.42,6.05,6.03,6.05
21.87,-1.87,-7.93,-1.94,-7.99,7.99,7.62,3.51,6.11,6.05,6.06
22.09,-1.79,-7.87,-1.86,-7.93,7.93,7.59,3.61,6.13,6.07,6.08
22.31,-1.74,-7.83,-1.79,-7.87,7.87,7.55,3.72,6.12,6.08,6.09
22.54,-1.70,-7.78,-1.71,-7.80,7.80,7.52,3.82,6.10,6.08,6.09
22.76,-1.63,-7.72,-1.64,-7.73,7.73,7.48,3.93,6.10,6.09,6.09
22.99,-1.58,-7.66,-1.58,-7.67,7.67,7.44,4.05,6.08,6.09,6.08
23.22,-1.52,-7.60,-1.51,-7.60,7.60,7.41,4.16,6.07,6.09,6.08
23.45,-1.47,-7.55,-1.45,-7.54,7.54,7.37,4.28,6.06,6.09,6.08
23.69,-1.42,-7.50,-1.38,-7.48,7.48,7.33,4.40,6.06,6.09,6.09
23.92,-1.35,-7.44,-1.32,-7.42,7.42,7.29,4.52,6.06,6.09,6.09
24.16,-1.28,-7.37,-1.26,-7.35,7.35,7.25,4.64,6.07,6.09,6.09
24.40,-1.20,-7.30,-1.20,-7.29,7.29,7.21,4.77,6.09,6.09,6.10
24.65,-1.14,-7.22,-1.13,-7.22,7.22,7.17,4.90,6.09,6.09,6.09
24.89,-1.05,-7.14,-1.06,-7.15,7.15,7.13,5.03,6.10,6.09,6.09
25.14,-0.98,-7.07,-1.00,-7.09,7.09,7.09,5.16,6.10,6.09,6.09
25.39,-0.91,-7.01,-0.93,-7.02,7.02,7.05,5.29,6.11,6.09,6.10
25.65,-0.85,-6.94,-0.87,-6.96,6.96,7.01,5.42,6.12,6.09,6.10
25.91,-0.79,-6.87,-0.81,-6.90,6.90,6.97,5.56,6.11,6.09,6.09
26.16,-0.72,-6.81,-0.74,-6.83,6.83,6.93,5.69,6.11,6.09,6.09
26.43,-0.67,-6.75,-0.68,-6.76,6.76,6.89,5.82,6.10,6.09,6.09
26.69,-0.61,-6.70,-0.61,-6.69,6.69,6.84,5.95,6.08,6.09,6.09
26.96,-0.57,-6.65,-0.54,-6.62,6.62,6.80,6.08,6.06,6.09,6.09
27.23,-0.51,-6.59,-0.47,-6.56,6.56,6.76,6.21,6.05,6.08,6.09
27.50,-0.45,-6.54,-0.41,-6.49,6.49,6.71,6.33,6.04,6.08,6.09
27.77,-0.39,-6.47,-0.35,-6.44,6.44,6.67,6.45,6.04,6.08,6.08
28.05,-0.33,-6.41,-0.30,-6.38,6.38,6.62,6.57,6.04,6.08,6.08
28.33,-0.23,-6.30,-0.24,-6.32,6.32,6.58,6.68,6.09,6.08,6.07
28.62,-0.13,-6.19,-0.19,-6.27,6.27,6.53,6.78,6.14,6.08,6.07
28.90,-0.02,-6.10,-0.14,-6.21,6.21,6.49,6.88,6.19,6.08,6.08
29.19,0.01,-6.06,-0.08,-6.16,6.16,6.44,6.97,6.16,6.07,6.07
29.48,0.01,-6.07,-0.03,-6.10,6.10,6.39,7.05,6.11,6.07,6.08
29.78,-0.00,-6.07,0.03,-6.04,6.04,6.35,7.12,6.04,6.07,6.07
30.08,0.01,-6.07,0.08,-5.99,5.99,6.30,7.18,5.99,6.07,6.08
30.38,0.07,-5.99,0.14,-5.93,5.93,6.25,7.22,6.00,6.07,6.07
30.68,0.15,-5.92,0.20,-5.87,5.87,6.21,7.26,6.01,6.07,6.07
30.99,0.21,-5.85,0.26,-5.81,5.81,6.16,7.29,6.02,6.06,6.07
31.30,0.29,-5.76,0.31,-5.75,5.75,6.11,7.30,6.04,6.06,6.06
31.61,0.38,-5.68,0.37,-5.69,5.69,6.06,7.31,6.07,6.06,6.06
31.93,0.45,-5.60,0.43,-5.63,5.63,6.01,7.30,6.08,6.06,6.06
32.24,0.53,-5.52,0.49,-5.56,5.56,5.96,7.28,6.09,6.05,6.05
32.57,0.58,-5.46,0.56,-5.49,5.49,5.91,7.25,6.07,6.05,6.05
32.89,0.66,-5.39,0.63,-5.41,5.41,5.86,7.20,6.06,6.04,6.05
33.22,0.72,-5.32,0.71,-5.33,5.33,5.81,7.15,6.05,6.04,6.04
33.55,0.78,-5.26,0.78,-5.26,5.26,5.76,7.09,6.03,6.03,6.04
33.89,0.84,-5.19,0.84,-5.19,5.19,5.71,7.02,6.02,6.03,6.03
34.23,0.89,-5.14,0.90,-5.13,5.13,5.66,6.95,6.01,6.03,6.03
34.57,0.93,-5.09,0.96,-5.07,5.07,5.61,6.86,5.99,6.02,6.02
34.92,0.97,-5.04,1.01,-5.01,5.01,5.56,6.77,5.98,6.02,6.02
35.27,1.05,-4.95,1.06,-4.95,4.95,5.51,6.68,6.01,6.01,6.01
35.62,1.14,-4.86,1.12,-4.90,4.90,5.46,6.58,6.04,6.01,6.01
35.97,1.23,-4.78,1.17,-4.84,4.84,5.40,6.48,6.07,6.01,6.01
36.33,1.25,-4.76,1.21,-4.79,4.79,5.35,6.38,6.04,6.01,6.01
36.70,1.25,-4.75,1.26,-4.75,4.75,5.30,6.27,5.99,6.01,6.00
37.06,1.27,-4.73,1.29,-4.71,4.71,5.25,6.16,5.98,6.01,6.00
37.43,1.32,-4.69,1.32,-4.69,4.69,5.20,6.06,6.00,6.01,6.01
37.81,1.37,-4.64,1.35,-4.66,4.66,5.14,5.95,6.02,6.01,6.01
38.19,1.42,-4.58,1.39,-4.62,4.62,5.09,5.84,6.04,6.01,6.00
38.57,1.46,-4.55,1.43,-4.58,4.58,5.04,5.74,6.04,6.01,6.01
38.95,1.50,-4.52,1.46,-4.54,4.54,4.98,5.63,6.04,6.01,6.02
39.34,1.50,-4.51,1.50,-4.51,4.51,4.93,5.53,6.00,6.01,6.01
39.74,1.49,-4.52,1.54,-4.47,4.47,4.88,5.43,5.96,6.01,6.01
40.14,1.50,-4.51,1.58,-4.43,4.43,4.82,5.33,5.93,6.01,6.01
40.54,1.54,-4.47,1.62,-4.39,4.39,4.77,5.24,5.92,6.01,6.01
40.94,1.57,-4.43,1.66,-4.34,4.34,4.71,5.14,5.91,6.00,6.00
41.35,1.71,-4.29,1.71,-4.29,4.29,4.66,5.05,6.00,6.00,6.00
41.76,1.86,-4.13,1.75,-4.24,4.24,4.60,4.97,6.10,5.99,5.99
42.18,1.93,-4.06,1.79,-4.20,4.20,4.55,4.88,6.12,5.98,5.99
42.60,1.89,-4.09,1.82,-4.15,4.15,4.49,4.80,6.04,5.97,5.98
43.03,1.86,-4.11,1.85,-4.11,4.11,4.44,4.73,5.96,5.96,5.97
43.46,1.88,-4.08,1.89,-4.06,4.06,4.38,4.65,5.93,5.95,5.96
43.90,1.90,-4.04,1.93,-4.00,4.00,4.33,4.59,5.90,5.94,5.94
44.33,1.95,-3.97,1.98,-3.95,3.95,4.27,4.52,5.89,5.92,5.92
44.78,2.01,-3.89,2.01,-3.90,3.90,4.22,4.46,5.90,5.91,5.90
45.23,2.04,-3.85,2.05,-3.85,3.85,4.16,4.40,5.89,5.90,5.89
45.68,2.05,-3.83,2.08,-3.81,3.81,4.11,4.34,5.85,5.88,5.88
46.13,2.06,-3.80,2.09,-3.78,3.78,4.05,4.29,5.83,5.87,5.86
46.60,2.07,-3.79,2.10,-3.75,3.75,4.00,4.24,5.82,5.85,5.86
47.06,2.10,-3.74,2.13,-3.71,3.71,3.94,4.19,5.81,5.84,5.84
47.53,2.22,-3.61,2.16,-3.67,3.67,3.88,4.15,5.88,5.82,5.83
48.01,2.33,-3.49,2.19,-3.62,3.62,3.83,4.11,5.95,5.81,5.83
48.49,2.30,-3.51,2.22,-3.58,3.58,3.77,4.07,5.87,5.80,5.81
48.97,2.26,-3.53,2.25,-3.54,3.54,3.72,4.04,5.79,5.78,5.79
49.46,2.26,-3.51,2.28,-3.50,3.50,3.66,4.01,5.75,5.77,5.77
49.96,2.26,-3.49,2.30,-3.45,3.45,3.60,3.98,5.71,5.76,5.75
50.46,2.22,-3.52,2.33,-3.41,3.41,3.55,3.95,5.63,5.74,5.74
50.96,2.18,-3.55,2.35,-3.38,3.38,3.49,3.92,5.56,5.73,5.73
51.47,2.35,-3.36,2.36,-3.36,3.36,3.43,3.90,5.70,5.72,5.71
51.99,2.51,-3.18,2.37,-3.33,3.33,3.38,3.88,5.85,5.70,5.70
52.51,2.49,-3.20,2.39,-3.30,3.30,3.32,3.86,5.79,5.69,5.69
53.03,2.46,-3.23,2.40,-3.28,3.28,3.26,3.84,5.73,5.68,5.69
53.56,2.46,-3.21,2.43,-3.24,3.24,3.21,3.82,5.70,5.67,5.67
54.10,2.46,-3.20,2.46,-3.20,3.20,3.15,3.80,5.65,5.66,5.66
54.64,2.46,-3.18,2.49,-3.16,3.16,3.09,3.78,5.62,5.65,5.64
55.18,2.45,-3.19,2.51,-3.13,3.13,3.04,3.76,5.58,5.64,5.64
55.74,2.40,-3.22,2.52,-3.11,3.11,2.98,3.74,5.50,5.62,5.62
56.29,2.43,-3.18,2.52,-3.09,3.09,2.92,3.71,5.51,5.61,5.61
56.86,2.52,-3.07,2.51,-3.08,3.08,2.87,3.69,5.61,5.60,5.60
57.42,2.59,-2.98,2.49,-3.10,3.10,2.81,3.67,5.68,5.58,5.57
58.00,2.63,-2.93,2.46,-3.10,3.10,2.75,3.64,5.72,5.56,5.56
58.58,2.57,-2.98,2.45,-3.09,3.09,2.70,3.61,5.66,5.54,5.55
59.16,2.49,-3.03,2.43,-3.09,3.09,2.64,3.58,5.58,5.51,5.53
59.76,2.44,-3.07,2.41,-3.08,3.08,2.58,3.54,5.52,5.49,5.51
60.35,2.37,-3.09,2.39,-3.07,3.07,2.53,3.51,5.45,5.46,5.47
60.96,2.31,-3.12,2.37,-3.05,3.05,2.47,3.47,5.36,5.42,5.43
61.57,2.28,-3.11,2.36,-3.02,3.02,2.42,3.42,5.30,5.39,5.39
62.18,2.25,-3.10,2.36,-2.99,2.99,2.36,3.37,5.23,5.35,5.35
62.80,2.23,-3.07,2.35,-2.95,2.95,2.30,3.32,5.18,5.31,5.30
63.43,2.28,-2.98,2.35,-2.92,2.92,2.25,3.26,5.19,5.26,5.26
64.07,2.35,-2.85,2.35,-2.87,2.87,2.19,3.20,5.22,5.22,5.21
64.71,2.36,-2.81,2.37,-2.81,2.81,2.14,3.14,5.16,5.17,5.17
65.35,2.40,-2.73,2.40,-2.73,2.73,2.08,3.07,5.12,5.13,5.13
66.01,2.46,-2.62,2.43,-2.65,2.65,2.03,3.00,5.11,5.08,5.08
66.67,2.53,-2.50,2.46,-2.58,2.58,1.97,2.93,5.10,5.03,5.03
67.33,2.56,-2.42,2.48,-2.51,2.51,1.92,2.85,5.06,4.98,4.98
68.01,2.56,-2.38,2.49,-2.45,2.45,1.86,2.77,5.00,4.94,4.94
68.69,2.48,-2.41,2.49,-2.40,2.40,1.81,2.69,4.87,4.89,4.89
69.37,2.45,-2.39,2.48,-2.36,2.36,1.76,2.60,4.80,4.83,4.84
70.07,2.45,-2.34,2.46,-2.33,2.33,1.71,2.51,4.77,4.78,4.79
70.77,2.48,-2.26,2.41,-2.32,2.32,1.65,2.42,4.79,4.73,4.74
71.48,2.44,-2.25,2.35,-2.32,2.32,1.60,2.33,4.76,4.67,4.69
72.19,2.35,-2.27,2.29,-2.33,2.33,1.55,2.23,4.68,4.62,4.62
72.91,2.22,-2.34,2.20,-2.36,2.36,1.50,2.13,4.57,4.56,4.56
73.64,2.14,-2.36,2.11,-2.39,2.39,1.45,2.04,4.54,4.51,4.51
74.38,2.05,-2.40,2.02,-2.43,2.43,1.41,1.94,4.47,4.45,4.45
75.12,1.96,-2.43,1.94,-2.46,2.46,1.36,1.84,4.41,4.39,4.39
75.87,1.92,-2.40,1.86,-2.47,2.47,1.31,1.74,4.40,4.34,4.33
76.63,1.81,-2.46,1.80,-2.48,2.48,1.27,1.64,4.30,4.28,4.28
77.40,1.70,-2.53,1.76,-2.47,2.47,1.23,1.53,4.17,4.23,4.23
78.17,1.62,-2.55,1.73,-2.44,2.44,1.19,1.43,4.06,4.18,4.17
78.95,1.63,-2.50,1.74,-2.39,2.39,1.15,1.33,4.01,4.13,4.13
79.74,1.62,-2.46,1.77,-2.30,2.30,1.12,1.23,3.92,4.08,4.08
80.54,1.67,-2.36,1.84,-2.19,2.19,1.09,1.13,3.86,4.03,4.03
81.35,1.78,-2.20,1.92,-2.06,2.06,1.06,1.02,3.84,3.98,3.98
82.16,1.94,-1.99,2.01,-1.93,1.93,1.03,0.92,3.86,3.93,3.93
82.98,2.06,-1.83,2.11,-1.78,1.78,1.01,0.82,3.83,3.89,3.89
83.81,2.21,-1.63,2.21,-1.63,1.63,1.00,0.72,3.83,3.84,3.84
84.65,2.38,-1.41,2.31,-1.48,1.48,0.99,0.61,3.85,3.79,3.79
85.50,2.56,-1.18,2.40,-1.34,1.34,0.99,0.51,3.90,3.74,3.75
86.35,2.68,-1.02,2.48,-1.22,1.22,0.99,0.41,3.89,3.69,3.70
87.22,2.67,-0.98,2.52,-1.12,1.12,1.01,0.31,3.78,3.64,3.65
88.09,2.66,-0.94,2.55,-1.05,1.05,1.03,0.21,3.70,3.59,3.60
88.97,2.65,-0.89,2.54,-1.00,1.00,1.07,0.11,3.64,3.54,3.54
89.86,2.55,-0.94,2.51,-0.98,0.98,1.12,0.00,3.52,3.49,3.49
90.76,2.45,-0.99,2.45,-0.99,0.99,1.19,-0.10,3.44,3.44,3.44
91.66,2.33,-1.05,2.35,-1.04,1.04,1.27,-0.20,3.37,3.39,3.39
92.58,2.20,-1.13,2.23,-1.11,1.11,1.37,-0.30,3.31,3.34,3.33
93.51,2.04,-1.24,2.08,-1.20,1.20,1.49,-0.40,3.24,3.29,3.28
94.44,1.86,-1.38,1.93,-1.31,1.31,1.63,-0.50,3.16,3.24,3.24
95.39,1.74,-1.45,1.76,-1.43,1.43,1.79,-0.60,3.16,3.19,3.19
96.34,1.64,-1.50,1.58,-1.56,1.56,1.96,-0.70,3.20,3.14,3.14
97.30,1.48,-1.60,1.38,-1.71,1.71,2.13,-0.80,3.19,3.09,3.09
98.28,1.28,-1.76,1.18,-1.87,1.87,2.30,-0.90,3.14,3.04,3.04
99.26,1.05,-1.95,0.97,-2.03,2.03,2.44,-1.00,3.07,2.99,3.00
100.25,0.85,-2.10,0.77,-2.18,2.18,2.54,-1.10,3.02,2.95,2.95
101.25,0.68,-2.21,0.60,-2.30,2.30,2.57,-1.20,2.99,2.90,2.90
102.27,0.55,-2.30,0.46,-2.39,2.39,2.52,-1.30,2.94,2.85,2.85
103.29,0.46,-2.34,0.35,-2.45,2.45,2.39,-1.39,2.90,2.80,2.80
104.32,0.30,-2.45,0.30,-2.45,2.45,2.18,-1.49,2.76,2.75,2.76
105.37,0.09,-2.62,0.30,-2.40,2.40,1.92,-1.59,2.49,2.70,2.71
106.42,0.02,-2.64,0.36,-2.29,2.29,1.61,-1.68,2.31,2.65,2.66
107.48,0.11,-2.49,0.48,-2.12,2.12,1.27,-1.78,2.22,2.60,2.60
108.56,0.36,-2.18,0.67,-1.87,1.87,0.94,-1.87,2.24,2.55,2.55
109.64,0.72,-1.78,0.94,-1.55,1.55,0.61,-1.96,2.27,2.49,2.50
110.74,1.13,-1.31,1.26,-1.18,1.18,0.29,-2.05,2.30,2.44,2.44
111.85,1.64,-0.75,1.63,-0.76,0.76,-0.01,-2.14,2.40,2.39,2.40
112.97,2.07,-0.26,2.04,-0.31,0.31,-0.29,-2.23,2.38,2.34,2.34
114.10,2.51,0.23,2.47,0.18,-0.18,-0.55,-2.31,2.33,2.29,2.29
115.24,3.07,0.84,2.94,0.69,-0.69,-0.80,-2.39,2.38,2.24,2.24
116.39,3.62,1.43,3.42,1.22,-1.22,-1.03,-2.47,2.39,2.20,2.19
117.55,4.06,1.91,3.90,1.75,-1.75,-1.24,-2.55,2.31,2.16,2.15
118.73,4.44,2.34,4.37,2.25,-2.25,-1.44,-2.62,2.20,2.12,2.11
119.92,4.90,2.83,4.80,2.72,-2.72,-1.63,-2.70,2.19,2.08,2.08
121.12,5.30,3.27,5.19,3.14,-3.14,-1.81,-2.76,2.16,2.04,2.04
122.33,5.49,3.49,5.54,3.53,-3.53,-1.98,-2.83,1.96,2.01,2.01
123.55,5.79,3.81,5.86,3.88,-3.88,-2.14,-2.89,1.90,1.98,1.98
124.79,6.11,4.17,6.14,4.20,-4.20,-2.30,-2.95,1.92,1.94,1.95
126.03,6.47,4.55,6.40,4.48,-4.48,-2.45,-3.00,1.98,1.92,1.92
127.29,6.73,4.83,6.61,4.73,-4.73,-2.60,-3.06,2.00,1.89,1.90
128.57,6.89,5.04,6.79,4.94,-4.94,-2.74,-3.11,1.96,1.86,1.86
129.85,6.98,5.15,6.95,5.12,-5.12,-2.88,-3.15,1.85,1.83,1.83
131.15,7.10,5.30,7.09,5.29,-5.29,-3.02,-3.20,1.81,1.80,1.80
132.46,7.17,5.40,7.20,5.43,-5.43,-3.16,-3.24,1.74,1.77,1.77
133.79,7.23,5.49,7.29,5.54,-5.54,-3.29,-3.28,1.68,1.74,1.74
135.12,7.34,5.63,7.36,5.64,-5.64,-3.42,-3.32,1.69,1.71,1.71
136.48,7.39,5.70,7.41,5.72,-5.72,-3.55,-3.36,1.66,1.69,1.69
137.84,7.41,5.76,7.44,5.78,-5.78,-3.68,-3.39,1.63,1.66,1.65
139.22,7.41,5.79,7.44,5.81,-5.81,-3.81,-3.42,1.60,1.63,1.62
140.61,7.42,5.83,7.43,5.83,-5.83,-3.94,-3.46,1.59,1.60,1.59
142.02,7.43,5.86,7.42,5.85,-5.85,-4.06,-3.49,1.57,1.57,1.57
143.44,7.44,5.90,7.40,5.87,-5.87,-4.19,-3.52,1.57,1.53,1.54
144.87,7.36,5.86,7.38,5.88,-5.88,-4.31,-3.55,1.47,1.49,1.50
146.32,7.32,5.86,7.33,5.88,-5.88,-4.44,-3.59,1.43,1.45,1.46
147.78,7.25,5.82,7.27,5.86,-5.86,-4.56,-3.62,1.38,1.40,1.43
149.26,7.14,5.76,7.18,5.83,-5.83,-4.69,-3.65,1.31,1.35,1.38
150.75,7.01,5.69,7.03,5.74,-5.74,-4.81,-3.69,1.26,1.29,1.32
152.26,6.94,5.69,6.85,5.62,-5.62,-4.93,-3.73,1.31,1.23,1.25
153.78,6.86,5.68,6.64,5.48,-5.48,-5.05,-3.76,1.38,1.16,1.18
155.32,6.74,5.63,6.42,5.33,-5.33,-5.17,-3.80,1.41,1.09,1.11
156.88,6.55,5.52,6.21,5.19,-5.19,-5.29,-3.85,1.36,1.02,1.03
158.44,6.32,5.38,6.03,5.07,-5.07,-5.41,-3.89,1.25,0.95,0.95
160.03,6.07,5.20,5.89,5.00,-5.00,-5.53,-3.94,1.07,0.89,0.87
161.63,5.67,4.87,5.80,4.98,-4.98,-5.65,-3.99,0.69,0.82,0.80
163.24,5.41,4.68,5.76,5.00,-5.00,-5.77,-4.04,0.42,0.76,0.74
164.88,5.19,4.50,5.77,5.06,-5.06,-5.88,-4.10,0.12,0.70,0.69
166.53,4.96,4.32,5.82,5.17,-5.17,-6.00,-4.16,-0.21,0.65,0.64
168.19,5.28,4.68,5.92,5.30,-5.30,-6.11,-4.22,-0.03,0.61,0.60
169.87,5.68,5.12,6.05,5.47,-5.47,-6.22,-4.28,0.20,0.58,0.56
171.57,6.25,5.71,6.23,5.67,-5.67,-6.33,-4.35,0.58,0.56,0.54
173.29,6.72,6.20,6.43,5.89,-5.89,-6.43,-4.42,0.83,0.54,0.53
175.02,7.07,6.55,6.65,6.13,-6.13,-6.53,-4.50,0.94,0.52,0.52
176.77,7.42,6.91,6.89,6.37,-6.37,-6.63,-4.58,1.04,0.51,0.51
178.54,7.53,7.03,7.12,6.62,-6.62,-6.73,-4.66,0.91,0.51,0.50
180.32,7.60,7.09,7.34,6.84,-6.84,-6.83,-4.74,0.75,0.50,0.51
182.13,7.65,7.13,7.52,7.03,-7.03,-6.92,-4.83,0.62,0.50,0.52
183.95,7.69,7.18,7.66,7.17,-7.17,-7.00,-4.93,0.51,0.49,0.51
185.79,7.70,7.19,7.74,7.26,-7.26,-7.08,-5.02,0.44,0.48,0.51
187.65,7.72,7.23,7.76,7.28,-7.28,-7.16,-5.12,0.43,0.47,0.49
189.52,7.67,7.19,7.74,7.27,-7.27,-7.24,-5.22,0.40,0.47,0.48
191.42,7.64,7.18,7.69,7.24,-7.24,-7.30,-5.33,0.40,0.45,0.46
193.33,7.59,7.15,7.64,7.20,-7.20,-7.37,-5.44,0.38,0.44,0.44
195.27,7.58,7.16,7.60,7.18,-7.18,-7.43,-5.55,0.39,0.42,0.42
197.22,7.56,7.16,7.56,7.16,-7.16,-7.48,-5.67,0.40,0.40,0.40
199.19,7.46,7.08,7.53,7.15,-7.15,-7.53,-5.78,0.31,0.38,0.38
201.18,7.41,7.05,7.49,7.13,-7.13,-7.57,-5.90,0.27,0.36,0.36
203.19,7.41,7.07,7.46,7.12,-7.12,-7.60,-6.03,0.29,0.34,0.34
205.23,7.41,7.09,7.43,7.11,-7.11,-7.63,-6.15,0.30,0.32,0.32
207.28,7.41,7.10,7.40,7.10,-7.10,-7.65,-6.27,0.30,0.30,0.31
209.35,7.41,7.12,7.38,7.10,-7.10,-7.67,-6.40,0.31,0.28,0.29
211.44,7.41,7.15,7.35,7.09,-7.09,-7.68,-6.52,0.32,0.26,0.26
213.56,7.41,7.16,7.32,7.08,-7.08,-7.68,-6.64,0.33,0.25,0.25
215.69,7.36,7.12,7.30,7.06,-7.06,-7.68,-6.77,0.29,0.24,0.24
217.85,7.22,6.99,7.27,7.05,-7.05,-7.67,-6.89,0.17,0.22,0.23
220.03,7.20,6.98,7.24,7.03,-7.03,-7.65,-7.00,0.17,0.21,0.22
222.23,7.19,7.00,7.22,7.01,-7.01,-7.63,-7.12,0.18,0.21,0.19
224.45,7.19,6.99,7.19,6.98,-6.98,-7.60,-7.22,0.20,0.21,0.20
226.70,7.19,6.99,7.15,6.95,-6.95,-7.57,-7.33,0.24,0.21,0.20
228.96,7.19,6.98,7.12,6.91,-6.91,-7.53,-7.42,0.28,0.21,0.21
231.25,7.06,6.84,7.09,6.87,-6.87,-7.48,-7.51,0.18,0.22,0.22
233.57,7.01,6.78,7.06,6.83,-6.83,-7.43,-7.59,0.17,0.23,0.23
235.90,7.02,6.78,7.04,6.80,-6.80,-7.38,-7.66,0.22,0.25,0.24
238.26,7.04,6.79,7.03,6.77,-6.77,-7.32,-7.72,0.27,0.26,0.25
240.64,7.01,6.73,7.02,6.73,-6.73,-7.26,-7.77,0.27,0.28,0.28
243.05,6.99,6.68,7.00,6.70,-6.70,-7.19,-7.81,0.29,0.30,0.31
245.48,7.01,6.68,6.98,6.66,-6.66,-7.12,-7.83,0.35,0.33,0.33
247.93,6.95,6.59,6.97,6.62,-6.62,-7.04,-7.84,0.33,0.35,0.36
250.41,6.94,6.56,6.95,6.58,-6.58,-6.97,-7.84,0.36,0.37,0.38
252.92,6.95,6.54,6.93,6.54,-6.54,-6.88,-7.82,0.41,0.40,0.41
255.45,6.96,6.53,6.92,6.50,-6.50,-6.80,-7.80,0.46,0.42,0.43
258.00,6.95,6.50,6.90,6.45,-6.45,-6.72,-7.75,0.49,0.45,0.45
260.58,6.89,6.42,6.87,6.40,-6.40,-6.63,-7.70,0.48,0.47,0.47
263.19,6.83,6.33,6.84,6.34,-6.34,-6.54,-7.64,0.48,0.50,0.50
265.82,6.78,6.26,6.80,6.28,-6.28,-6.45,-7.56,0.49,0.52,0.52
268.48,6.77,6.23,6.77,6.23,-6.23,-6.36,-7.47,0.54,0.54,0.54
271.16,6.77,6.20,6.73,6.16,-6.16,-6.26,-7.38,0.60,0.57,0.57
273.87,6.70,6.11,6.68,6.09,-6.09,-6.17,-7.27,0.61,0.59,0.59
276.61,6.65,6.03,6.63,6.01,-6.01,-6.08,-7.16,0.64,0.62,0.62
279.38,6.58,5.93,6.57,5.93,-5.93,-5.98,-7.04,0.65,0.65,0.65
282.17,6.49,5.82,6.52,5.85,-5.85,-5.88,-6.92,0.64,0.67,0.67
284.99,6.47,5.76,6.47,5.77,-5.77,-5.79,-6.79,0.70,0.70,0.71
287.84,6.44,5.71,6.42,5.69,-5.69,-5.69,-6.66,0.75,0.73,0.73
290.72,6.39,5.63,6.38,5.61,-5.61,-5.60,-6.53,0.77,0.76,0.76
293.63,6.33,5.54,6.33,5.54,-5.54,-5.50,-6.39,0.79,0.79,0.79
296.57,6.29,5.47,6.28,5.46,-5.46,-5.40,-6.25,0.82,0.82,0.82
299.53,6.14,5.29,6.23,5.39,-5.39,-5.31,-6.11,0.75,0.85,0.85
302.53,6.13,5.26,6.19,5.31,-5.31,-5.21,-5.97,0.81,0.87,0.87
305.55,6.16,5.25,6.14,5.24,-5.24,-5.12,-5.83,0.92,0.90,0.91
308.61,6.18,5.25,6.09,5.17,-5.17,-5.03,-5.69,1.01,0.93,0.93
311.69,6.09,5.13,6.05,5.10,-5.10,-4.93,-5.56,0.98,0.95,0.96
314.81,6.00,5.02,6.00,5.03,-5.03,-4.84,-5.42,0.96,0.97,0.98
317.96,5.97,4.97,5.95,4.96,-4.96,-4.75,-5.29,1.01,0.99,1.00
321.14,5.93,4.92,5.90,4.89,-4.89,-4.66,-5.16,1.04,1.01,1.01
324.35,5.87,4.84,5.85,4.82,-4.82,-4.57,-5.03,1.05,1.03,1.03
327.59,5.78,4.74,5.79,4.75,-4.75,-4.48,-4.90,1.03,1.04,1.04
330.87,5.72,4.67,5.74,4.68,-4.68,-4.39,-4.78,1.03,1.06,1.05
334.18,5.67,4.60,5.69,4.62,-4.62,-4.30,-4.65,1.05,1.07,1.07
337.52,5.61,4.53,5.62,4.54,-4.54,-4.22,-4.54,1.06,1.08,1.08
340.90,5.57,4.48,5.55,4.47,-4.47,-4.13,-4.42,1.10,1.09,1.09
344.30,5.51,4.41,5.49,4.39,-4.39,-4.05,-4.31,1.11,1.09,1.10
347.75,5.40,4.30,5.42,4.33,-4.33,-3.97,-4.20,1.07,1.10,1.10
351.23,5.36,4.25,5.36,4.26,-4.26,-3.88,-4.09,1.10,1.10,1.11
354.74,5.35,4.25,5.30,4.19,-4.19,-3.80,-3.99,1.16,1.11,1.10
358.28,5.23,4.12,5.23,4.12,-4.12,-3.72,-3.89,1.10,1.11,1.11
361.87,5.18,4.07,5.17,4.06,-4.06,-3.65,-3.79,1.12,1.11,1.11
365.49,5.15,4.03,5.10,3.99,-3.99,-3.57,-3.70,1.15,1.11,1.12
369.14,5.01,3.90,5.04,3.93,-3.93,-3.49,-3.61,1.07,1.11,1.11
372.83,4.94,3.83,4.98,3.87,-3.87,-3.42,-3.52,1.06,1.11,1.11
376.56,4.90,3.80,4.92,3.81,-3.81,-3.34,-3.44,1.08,1.11,1.10
380.33,4.84,3.73,4.86,3.75,-3.75,-3.27,-3.35,1.08,1.10,1.11
384.13,4.79,3.68,4.79,3.69,-3.69,-3.20,-3.27,1.10,1.10,1.11
387.97,4.73,3.63,4.72,3.63,-3.63,-3.13,-3.20,1.10,1.10,1.10
391.85,4.66,3.57,4.65,3.56,-3.56,-3.06,-3.12,1.09,1.09,1.09
395.77,4.61,3.51,4.58,3.49,-3.49,-2.99,-3.05,1.11,1.09,1.10
399.73,4.55,3.46,4.50,3.42,-3.42,-2.92,-2.98,1.13,1.08,1.09
403.72,4.48,3.39,4.42,3.35,-3.35,-2.85,-2.91,1.13,1.07,1.09
407.76,4.43,3.36,4.34,3.27,-3.27,-2.79,-2.84,1.15,1.07,1.07
411.84,4.30,3.23,4.27,3.20,-3.20,-2.72,-2.78,1.09,1.07,1.07
415.96,4.15,3.08,4.20,3.13,-3.13,-2.66,-2.72,1.02,1.07,1.07
420.12,4.08,3.01,4.12,3.05,-3.05,-2.59,-2.66,1.03,1.07,1.07
424.32,4.02,2.95,4.04,2.96,-2.96,-2.53,-2.60,1.05,1.08,1.07
428.56,3.96,2.88,3.96,2.88,-2.88,-2.47,-2.54,1.08,1.09,1.08
432.85,3.88,2.79,3.90,2.80,-2.80,-2.41,-2.48,1.07,1.10,1.09
437.18,3.76,2.66,3.84,2.72,-2.72,-2.35,-2.43,1.03,1.12,1.10
441.55,3.79,2.65,3.79,2.64,-2.64,-2.29,-2.38,1.14,1.15,1.14
445.96,3.81,2.64,3.75,2.57,-2.57,-2.23,-2.32,1.23,1.18,1.17
450.42,3.71,2.51,3.71,2.50,-2.50,-2.17,-2.27,1.21,1.21,1.20
454.93,3.69,2.44,3.69,2.43,-2.43,-2.12,-2.22,1.25,1.26,1.25
459.48,3.67,2.38,3.68,2.38,-2.38,-2.06,-2.17,1.28,1.30,1.29
464.07,3.58,2.24,3.67,2.33,-2.33,-2.01,-2.12,1.25,1.35,1.34
468.71,3.60,2.20,3.66,2.27,-2.27,-1.95,-2.07,1.33,1.39,1.40
473.40,3.71,2.27,3.65,2.21,-2.21,-1.90,-2.02,1.50,1.44,1.44
478.13,3.69,2.19,3.63,2.14,-2.14,-1.84,-1.97,1.55,1.49,1.50
482.91,3.57,2.03,3.61,2.07,-2.07,-1.79,-1.92,1.49,1.54,1.54
487.74,3.62,2.04,3.58,2.01,-2.01,-1.74,-1.87,1.61,1.58,1.58
492.62,3.60,1.97,3.55,1.93,-1.93,-1.69,-1.81,1.66,1.61,1.63
497.55,3.53,1.88,3.50,1.86,-1.86,-1.64,-1.76,1.67,1.64,1.65
502.52,3.55,1.87,3.45,1.78,-1.78,-1.59,-1.71,1.76,1.67,1.68
507.55,3.46,1.77,3.38,1.70,-1.70,-1.54,-1.66,1.75,1.68,1.69
512.62,3.30,1.60,3.31,1.62,-1.62,-1.49,-1.61,1.68,1.69,1.70
517.75,3.18,1.47,3.22,1.54,-1.54,-1.44,-1.55,1.64,1.69,1.71
522.93,3.11,1.41,3.13,1.45,-1.45,-1.39,-1.50,1.65,1.67,1.70
528.16,3.01,1.34,3.02,1.37,-1.37,-1.34,-1.45,1.64,1.65,1.67
533.44,2.94,1.30,2.91,1.29,-1.29,-1.30,-1.39,1.65,1.62,1.64
538.77,2.81,1.20,2.80,1.21,-1.21,-1.25,-1.34,1.60,1.59,1.61
544.16,2.66,1.10,2.67,1.13,-1.13,-1.20,-1.28,1.53,1.54,1.56
549.60,2.53,1.02,2.55,1.05,-1.05,-1.15,-1.22,1.47,1.50,1.51
555.10,2.43,0.98,2.43,0.98,-0.98,-1.11,-1.17,1.44,1.45,1.45
