frequency,raw,error,smoothed,error_smoothed,equalization,parametric_eq,fixed_band_eq,equalized_raw,equalized_smoothed,target
20.00,12.63,1.49,12.57,1.43,-1.43,-1.75,-0.99,11.20,11.14,11.14
20.20,12.66,1.51,12.67,1.52,-1.52,-1.77,-1.02,11.14,11.15,11.15
20.40,12.75,1.59,12.77,1.61,-1.61,-1.78,-1.05,11.14,11.16,11.16
20.61,12.83,1.66,12.86,1.70,-1.70,-1.80,-1.08,11.14,11.17,11.17
20.81,12.95,1.78,12.96,1.78,-1.78,-1.82,-1.11,11.16,11.17,11.17
21.02,13.03,1.86,13.05,1.87,-1.87,-1.84,-1.14,11.16,11.18,11.18
21.23,13.14,1.96,13.15,1.96,-1.96,-1.85,-1.17,11.18,11.19,11.19
21.44,13.25,2.04,13.24,2.05,-2.05,-1.87,-1.21,11.20,11.20,11.21
21.66,13.33,2.13,13.34,2.14,-2.14,-1.89,-1.24,11.20,11.20,11.20
21.87,13.45,2.23,13.43,2.23,-2.23,-1.91,-1.28,11.22,11.21,11.21
22.09,13.53,2.31,13.53,2.31,-2.31,-1.92,-1.31,11.21,11.21,11.21
22.31,13.64,2.41,13.62,2.40,-2.40,-1.94,-1.35,11.23,11.22,11.22
22.54,13.71,2.49,13.72,2.50,-2.50,-1.96,-1.39,11.22,11.22,11.22
22.76,13.81,2.58,13.82,2.59,-2.59,-1.98,-1.43,11.22,11.23,11.23
22.99,13.91,2.69,13.91,2.68,-2.68,-1.99,-1.47,11.23,11.23,11.23
23.22,13.98,2.76,14.02,2.79,-2.79,-2.01,-1.51,11.20,11.23,11.23
23.45,14.09,2.85,14.15,2.92,-2.92,-2.03,-1.55,11.17,11.23,11.23
23.69,14.18,2.95,14.28,3.04,-3.04,-2.04,-1.60,11.14,11.24,11.23
23.92,14.27,3.03,14.40,3.16,-3.16,-2.06,-1.64,11.10,11.24,11.23
24.16,14.37,3.12,14.50,3.26,-3.26,-2.08,-1.69,11.11,11.24,11.24
24.40,14.44,3.19,14.54,3.30,-3.30,-2.10,-1.73,11.14,11.24,11.25
24.65,14.52,3.28,14.54,3.29,-3.29,-2.11,-1.78,11.23,11.24,11.25
24.89,14.61,3.36,14.49,3.25,-3.25,-2.13,-1.83,11.36,11.24,11.25
25.14,14.68,3.43,14.41,3.17,-3.17,-2.15,-1.87,11.51,11.24,11.24
25.39,14.73,3.49,14.30,3.06,-3.06,-2.16,-1.92,11.68,11.24,11.24
25.65,14.75,3.51,14.17,2.93,-2.93,-2.18,-1.97,11.83,11.24,11.24
25.91,14.53,3.29,14.02,2.78,-2.78,-2.20,-2.02,11.75,11.24,11.24
26.16,13.91,2.66,13.86,2.62,-2.62,-2.21,-2.06,11.29,11.24,11.25
26.43,13.61,2.36,13.69,2.45,-2.45,-2.23,-2.11,11.16,11.24,11.24
26.69,13.11,1.87,13.53,2.29,-2.29,-2.24,-2.16,10.83,11.24,11.24
26.96,12.75,1.51,13.38,2.13,-2.13,-2.26,-2.21,10.61,11.24,11.24
27.23,12.78,1.55,13.23,1.99,-1.99,-2.28,-2.25,10.79,11.24,11.24
27.50,12.84,1.61,13.12,1.88,-1.88,-2.29,-2.30,10.97,11.24,11.24
27.77,12.92,1.67,13.02,1.78,-1.78,-2.31,-2.34,11.13,11.24,11.24
28.05,12.99,1.75,12.97,1.73,-1.73,-2.33,-2.38,11.27,11.24,11.24
28.33,13.05,1.82,12.95,1.71,-1.71,-2.34,-2.42,11.34,11.24,11.24
28.62,13.11,1.88,12.98,1.74,-1.74,-2.36,-2.46,11.37,11.24,11.23
28.90,13.18,1.94,13.05,1.82,-1.82,-2.37,-2.50,11.37,11.24,11.24
29.19,13.24,2.01,13.16,1.92,-1.92,-2.39,-2.54,11.32,11.24,11.24
29.48,13.32,2.08,13.26,2.03,-2.03,-2.40,-2.57,11.29,11.23,11.24
29.78,13.38,2.15,13.37,2.14,-2.14,-2.42,-2.60,11.24,11.23,11.23
30.08,13.46,2.22,13.46,2.23,-2.23,-2.43,-2.63,11.23,11.23,11.24
30.38,13.54,2.32,13.53,2.31,-2.31,-2.45,-2.65,11.24,11.23,11.22
30.68,13.59,2.37,13.60,2.38,-2.38,-2.46,-2.67,11.21,11.22,11.22
30.99,13.66,2.45,13.68,2.47,-2.47,-2.48,-2.69,11.20,11.22,11.22
31.30,13.72,2.51,13.76,2.55,-2.55,-2.49,-2.71,11.18,11.21,11.21
31.61,13.78,2.58,13.84,2.63,-2.63,-2.51,-2.72,11.15,11.21,11.21
31.93,13.81,2.62,13.90,2.70,-2.70,-2.52,-2.73,11.12,11.20,11.19
32.24,13.86,2.66,13.92,2.73,-2.73,-2.54,-2.74,11.13,11.20,11.20
32.57,13.90,2.72,13.91,2.72,-2.72,-2.55,-2.74,11.18,11.19,11.19
32.89,13.93,2.75,13.88,2.70,-2.70,-2.56,-2.74,11.24,11.18,11.18
33.22,13.98,2.81,13.82,2.65,-2.65,-2.58,-2.74,11.34,11.18,11.18
33.55,13.99,2.82,13.75,2.58,-2.58,-2.59,-2.74,11.42,11.17,11.17
33.89,13.99,2.83,13.66,2.50,-2.50,-2.61,-2.74,11.50,11.16,11.16
34.23,13.84,2.69,13.56,2.41,-2.41,-2.62,-2.73,11.43,11.15,11.15
34.57,13.56,2.42,13.46,2.32,-2.32,-2.63,-2.72,11.25,11.14,11.14
34.92,13.33,2.20,13.35,2.22,-2.22,-2.65,-2.71,11.10,11.13,11.13
35.27,12.96,1.83,13.25,2.14,-2.14,-2.66,-2.70,10.82,11.12,11.13
35.62,12.76,1.65,13.16,2.05,-2.05,-2.67,-2.69,10.70,11.11,11.10
35.97,12.79,1.69,13.08,1.99,-1.99,-2.69,-2.68,10.80,11.09,11.10
36.33,12.85,1.77,13.01,1.93,-1.93,-2.70,-2.67,10.91,11.08,11.08
36.70,12.89,1.83,12.96,1.90,-1.90,-2.71,-2.65,10.99,11.06,11.06
37.06,12.94,1.89,12.93,1.88,-1.88,-2.72,-2.64,11.05,11.05,11.04
37.43,12.99,1.96,12.92,1.89,-1.89,-2.74,-2.63,11.09,11.03,11.03
37.81,13.03,2.03,12.94,1.93,-1.93,-2.75,-2.62,11.11,11.01,11.01
38.19,13.07,2.09,12.98,1.99,-1.99,-2.76,-2.61,11.08,10.99,10.99
38.57,13.12,2.15,13.05,2.08,-2.08,-2.77,-2.60,11.04,10.97,10.97
38.95,13.16,2.20,13.13,2.18,-2.18,-2.79,-2.59,10.98,10.95,10.95
39.34,13.20,2.28,13.21,2.28,-2.28,-2.80,-2.58,10.92,10.93,10.92
39.74,13.24,2.34,13.28,2.37,-2.37,-2.81,-2.57,10.87,10.90,10.90
40.14,13.24,2.36,13.32,2.44,-2.44,-2.82,-2.57,10.80,10.88,10.88
40.54,13.29,2.43,13.35,2.49,-2.49,-2.83,-2.56,10.80,10.86,10.86
40.94,13.29,2.47,13.35,2.52,-2.52,-2.84,-2.56,10.77,10.83,10.83
41.35,13.34,2.54,13.33,2.53,-2.53,-2.86,-2.56,10.81,10.80,10.81
41.76,13.38,2.60,13.30,2.53,-2.53,-2.87,-2.56,10.85,10.78,10.77
42.18,13.43,2.68,13.26,2.51,-2.51,-2.88,-2.56,10.92,10.75,10.75
42.60,13.43,2.72,13.20,2.48,-2.48,-2.89,-2.57,10.95,10.72,10.72
43.03,13.36,2.68,13.13,2.45,-2.45,-2.90,-2.57,10.92,10.69,10.69
43.46,13.18,2.53,13.06,2.41,-2.41,-2.91,-2.58,10.78,10.65,10.65
43.90,13.00,2.38,12.98,2.36,-2.36,-2.92,-2.59,10.63,10.62,10.62
44.33,12.74,2.16,12.91,2.32,-2.32,-2.93,-2.61,10.42,10.58,10.58
44.78,12.61,2.06,12.84,2.29,-2.29,-2.94,-2.62,10.32,10.55,10.55
45.23,12.55,2.03,12.77,2.26,-2.26,-2.95,-2.64,10.29,10.51,10.52
45.68,12.54,2.07,12.70,2.23,-2.23,-2.96,-2.66,10.31,10.47,10.47
46.13,12.59,2.17,12.65,2.22,-2.22,-2.97,-2.68,10.37,10.43,10.43
46.60,12.59,2.21,12.61,2.22,-2.22,-2.98,-2.70,10.37,10.39,10.39
47.06,12.59,2.25,12.59,2.24,-2.24,-2.99,-2.72,10.35,10.34,10.35
47.53,12.63,2.32,12.58,2.28,-2.28,-3.00,-2.75,10.35,10.30,10.31
48.01,12.64,2.39,12.60,2.35,-2.35,-3.01,-2.78,10.30,10.25,10.25
48.49,12.67,2.46,12.63,2.42,-2.42,-3.02,-2.81,10.25,10.21,10.21
48.97,12.68,2.53,12.66,2.50,-2.50,-3.03,-2.84,10.18,10.16,10.16
49.46,12.69,2.58,12.70,2.58,-2.58,-3.04,-2.87,10.11,10.11,10.12
49.96,12.73,2.68,12.72,2.66,-2.66,-3.05,-2.90,10.08,10.07,10.05
50.46,12.73,2.72,12.73,2.72,-2.72,-3.06,-2.94,10.02,10.02,10.01
50.96,12.73,2.77,12.73,2.76,-2.76,-3.07,-2.97,9.97,9.97,9.97
51.47,12.73,2.81,12.72,2.80,-2.80,-3.08,-3.01,9.93,9.92,9.92
51.99,12.73,2.87,12.70,2.83,-2.83,-3.09,-3.05,9.90,9.87,9.86
52.51,12.72,2.91,12.67,2.86,-2.86,-3.10,-3.09,9.87,9.81,9.82
53.03,12.68,2.91,12.64,2.87,-2.87,-3.11,-3.13,9.81,9.76,9.78
53.56,12.64,2.92,12.60,2.89,-2.89,-3.12,-3.17,9.76,9.71,9.72
54.10,12.61,2.95,12.56,2.90,-2.90,-3.13,-3.20,9.72,9.66,9.66
54.64,12.54,2.93,12.52,2.91,-2.91,-3.14,-3.24,9.63,9.61,9.61
55.18,12.45,2.90,12.49,2.92,-2.92,-3.15,-3.28,9.53,9.56,9.55
55.74,12.38,2.88,12.45,2.94,-2.94,-3.16,-3.32,9.44,9.51,9.50
56.29,12.32,2.87,12.42,2.96,-2.96,-3.16,-3.35,9.37,9.46,9.45
56.86,12.31,2.91,12.39,2.98,-2.98,-3.17,-3.39,9.33,9.41,9.41
57.42,12.31,2.97,12.37,3.02,-3.02,-3.18,-3.42,9.30,9.36,9.34
58.00,12.31,3.02,12.36,3.05,-3.05,-3.19,-3.45,9.26,9.30,9.30
58.58,12.36,3.11,12.35,3.10,-3.10,-3.20,-3.48,9.26,9.25,9.26
59.16,12.36,3.15,12.34,3.15,-3.15,-3.21,-3.51,9.21,9.19,9.21
59.76,12.36,3.20,12.34,3.20,-3.20,-3.22,-3.54,9.16,9.13,9.16
60.35,12.38,3.30,12.33,3.26,-3.26,-3.23,-3.56,9.13,9.07,9.09
60.96,12.37,3.35,12.34,3.32,-3.32,-3.24,-3.58,9.05,9.01,9.03
61.57,12.36,3.41,12.34,3.39,-3.39,-3.25,-3.60,8.98,8.95,8.95
62.18,12.36,3.49,12.35,3.46,-3.46,-3.26,-3.61,8.91,8.89,8.88
62.80,12.33,3.52,12.35,3.52,-3.52,-3.27,-3.62,8.81,8.83,8.81
63.43,12.31,3.57,12.34,3.58,-3.58,-3.28,-3.63,8.74,8.76,8.75
64.07,12.26,3.58,12.32,3.62,-3.62,-3.29,-3.64,8.64,8.70,8.69
64.71,12.26,3.64,12.30,3.66,-3.66,-3.29,-3.64,8.60,8.63,8.63
65.35,12.22,3.66,12.26,3.69,-3.69,-3.30,-3.64,8.54,8.57,8.57
66.01,12.22,3.72,12.21,3.71,-3.71,-3.31,-3.64,8.52,8.50,8.51
66.67,12.22,3.77,12.16,3.72,-3.72,-3.32,-3.64,8.51,8.44,8.45
67.33,12.22,3.85,12.10,3.72,-3.72,-3.33,-3.63,8.50,8.38,8.38
68.01,12.15,3.84,12.04,3.73,-3.73,-3.34,-3.63,8.43,8.31,8.31
68.69,12.05,3.81,11.97,3.73,-3.73,-3.35,-3.62,8.32,8.24,8.24
69.37,11.93,3.75,11.91,3.73,-3.73,-3.36,-3.61,8.20,8.18,8.19
70.07,11.80,3.69,11.85,3.74,-3.74,-3.38,-3.59,8.06,8.11,8.12
70.77,11.70,3.66,11.79,3.75,-3.75,-3.39,-3.58,7.95,8.04,8.05
71.48,11.62,3.65,11.74,3.77,-3.77,-3.40,-3.57,7.86,7.97,7.97
72.19,11.59,3.70,11.69,3.79,-3.79,-3.41,-3.56,7.81,7.90,7.90
72.91,11.56,3.74,11.64,3.81,-3.81,-3.42,-3.54,7.75,7.83,7.82
73.64,11.56,3.82,11.60,3.85,-3.85,-3.43,-3.53,7.72,7.76,7.75
74.38,11.56,3.88,11.57,3.88,-3.88,-3.44,-3.52,7.68,7.69,7.68
75.12,11.56,3.95,11.55,3.93,-3.93,-3.45,-3.51,7.64,7.62,7.61
75.87,11.56,4.01,11.53,3.98,-3.98,-3.46,-3.50,7.58,7.55,7.55
76.63,11.56,4.08,11.53,4.05,-4.05,-3.48,-3.49,7.52,7.48,7.48
77.40,11.56,4.15,11.54,4.12,-4.12,-3.49,-3.48,7.44,7.42,7.42
78.17,11.56,4.22,11.55,4.20,-4.20,-3.50,-3.48,7.37,7.35,7.34
78.95,11.52,4.24,11.56,4.27,-4.27,-3.51,-3.47,7.25,7.28,7.29
79.74,11.51,4.29,11.55,4.34,-4.34,-3.53,-3.47,7.18,7.22,7.22
80.54,11.47,4.32,11.53,4.38,-4.38,-3.54,-3.47,7.10,7.15,7.15
81.35,11.45,4.37,11.49,4.40,-4.40,-3.55,-3.47,7.05,7.09,7.09
82.16,11.42,4.40,11.42,4.40,-4.40,-3.57,-3.48,7.02,7.02,7.03
82.98,11.38,4.43,11.34,4.39,-4.39,-3.58,-3.49,6.99,6.95,6.96
83.81,11.38,4.50,11.25,4.36,-4.36,-3.60,-3.50,7.02,6.88,6.88
84.65,11.32,4.51,11.14,4.32,-4.32,-3.61,-3.51,7.00,6.81,6.81
85.50,11.24,4.51,11.02,4.28,-4.28,-3.63,-3.52,6.97,6.74,6.74
86.35,11.05,4.38,10.90,4.23,-4.23,-3.64,-3.54,6.83,6.67,6.67
87.22,10.78,4.17,10.78,4.18,-4.18,-3.66,-3.56,6.60,6.60,6.61
88.09,10.57,4.04,10.66,4.13,-4.13,-3.67,-3.58,6.44,6.53,6.53
88.97,10.33,3.87,10.54,4.08,-4.08,-3.69,-3.61,6.25,6.46,6.46
89.86,10.20,3.82,10.43,4.04,-4.04,-3.71,-3.64,6.16,6.39,6.38
90.76,10.15,3.84,10.32,4.01,-4.01,-3.72,-3.67,6.14,6.31,6.31
91.66,10.12,3.89,10.22,3.99,-3.99,-3.74,-3.70,6.14,6.24,6.23
92.58,10.09,3.93,10.13,3.97,-3.97,-3.76,-3.74,6.13,6.16,6.16
93.51,10.07,3.98,10.05,3.97,-3.97,-3.78,-3.78,6.11,6.08,6.09
94.44,10.07,4.06,9.99,3.98,-3.98,-3.80,-3.82,6.09,6.01,6.02
95.39,10.02,4.09,9.95,4.02,-4.02,-3.82,-3.86,6.00,5.93,5.94
96.34,10.01,4.16,9.93,4.07,-4.07,-3.84,-3.91,5.94,5.85,5.85
97.30,9.95,4.17,9.91,4.14,-4.14,-3.86,-3.96,5.82,5.78,5.78
98.28,9.89,4.20,9.90,4.20,-4.20,-3.88,-4.01,5.70,5.70,5.70
99.26,9.84,4.23,9.88,4.26,-4.26,-3.90,-4.06,5.59,5.63,5.61
100.25,9.79,4.26,9.85,4.30,-4.30,-3.92,-4.12,5.49,5.55,5.54
101.25,9.76,4.29,9.82,4.34,-4.34,-3.94,-4.17,5.42,5.47,5.47
102.27,9.74,4.35,9.77,4.37,-4.37,-3.96,-4.23,5.38,5.40,5.40
103.29,9.74,4.42,9.71,4.39,-4.39,-3.98,-4.29,5.36,5.33,5.32
104.32,9.69,4.44,9.65,4.39,-4.39,-4.01,-4.34,5.30,5.25,5.26
105.37,9.64,4.46,9.57,4.39,-4.39,-4.03,-4.40,5.25,5.18,5.18
106.42,9.58,4.47,9.50,4.39,-4.39,-4.05,-4.46,5.19,5.11,5.12
107.48,9.49,4.46,9.42,4.38,-4.38,-4.08,-4.52,5.11,5.03,5.03
108.56,9.40,4.44,9.34,4.38,-4.38,-4.10,-4.58,5.03,4.96,4.96
109.64,9.28,4.39,9.25,4.37,-4.37,-4.13,-4.64,4.91,4.89,4.89
110.74,9.14,4.33,9.17,4.36,-4.36,-4.15,-4.69,4.78,4.81,4.81
111.85,9.01,4.28,9.09,4.35,-4.35,-4.18,-4.75,4.66,4.74,4.74
112.97,8.90,4.24,9.01,4.35,-4.35,-4.20,-4.80,4.56,4.66,4.67
114.10,8.83,4.24,8.93,4.34,-4.34,-4.23,-4.85,4.49,4.58,4.59
115.24,8.79,4.29,8.85,4.34,-4.34,-4.26,-4.89,4.45,4.51,4.51
116.39,8.74,4.32,8.78,4.35,-4.35,-4.28,-4.94,4.39,4.43,4.42
117.55,8.72,4.37,8.73,4.37,-4.37,-4.31,-4.97,4.36,4.36,4.35
118.73,8.68,4.42,8.67,4.39,-4.39,-4.34,-5.01,4.29,4.28,4.27
119.92,8.65,4.46,8.63,4.42,-4.42,-4.37,-5.04,4.24,4.21,4.20
121.12,8.62,4.49,8.59,4.46,-4.46,-4.39,-5.06,4.17,4.13,4.14
122.33,8.58,4.53,8.56,4.50,-4.50,-4.42,-5.08,4.09,4.06,4.06
123.55,8.53,4.55,8.53,4.54,-4.54,-4.45,-5.09,3.99,3.98,3.99
124.79,8.49,4.58,8.50,4.59,-4.59,-4.48,-5.10,3.91,3.91,3.92
126.03,8.44,4.60,8.46,4.63,-4.63,-4.50,-5.10,3.82,3.83,3.84
127.29,8.39,4.63,8.42,4.66,-4.66,-4.53,-5.10,3.74,3.76,3.76
128.57,8.35,4.67,8.36,4.68,-4.68,-4.56,-5.09,3.68,3.69,3.69
129.85,8.29,4.68,8.30,4.69,-4.69,-4.59,-5.08,3.61,3.61,3.61
131.15,8.23,4.70,8.23,4.69,-4.69,-4.61,-5.06,3.54,3.54,3.54
132.46,8.20,4.74,8.16,4.69,-4.69,-4.64,-5.04,3.52,3.47,3.47
133.79,8.14,4.75,8.08,4.68,-4.68,-4.66,-5.01,3.47,3.40,3.39
135.12,8.06,4.74,7.99,4.66,-4.66,-4.69,-4.98,3.40,3.33,3.32
136.48,7.95,4.69,7.90,4.64,-4.64,-4.71,-4.94,3.32,3.26,3.26
137.84,7.83,4.64,7.80,4.61,-4.61,-4.74,-4.91,3.22,3.19,3.19
139.22,7.69,4.58,7.71,4.59,-4.59,-4.76,-4.86,3.11,3.12,3.11
140.61,7.57,4.52,7.62,4.56,-4.56,-4.79,-4.82,3.02,3.06,3.06
142.02,7.46,4.47,7.52,4.53,-4.53,-4.81,-4.77,2.94,3.00,2.99
143.44,7.36,4.44,7.43,4.50,-4.50,-4.83,-4.73,2.87,2.93,2.93
144.87,7.29,4.42,7.34,4.47,-4.47,-4.85,-4.68,2.83,2.87,2.88
146.32,7.21,4.40,7.26,4.45,-4.45,-4.87,-4.63,2.77,2.81,2.81
147.78,7.16,4.41,7.18,4.43,-4.43,-4.88,-4.58,2.74,2.75,2.75
149.26,7.11,4.42,7.11,4.42,-4.42,-4.90,-4.53,2.70,2.69,2.69
150.75,7.06,4.44,7.05,4.42,-4.42,-4.91,-4.48,2.65,2.63,2.63
152.26,7.01,4.43,7.00,4.42,-4.42,-4.93,-4.44,2.59,2.57,2.58
153.78,6.95,4.44,6.95,4.43,-4.43,-4.94,-4.39,2.52,2.51,2.51
155.32,6.89,4.43,6.90,4.45,-4.45,-4.95,-4.34,2.45,2.45,2.46
156.88,6.85,4.46,6.85,4.46,-4.46,-4.96,-4.30,2.40,2.39,2.40
158.44,6.80,4.47,6.80,4.47,-4.47,-4.96,-4.26,2.34,2.33,2.34
160.03,6.76,4.49,6.75,4.48,-4.48,-4.97,-4.22,2.29,2.27,2.28
161.63,6.71,4.50,6.70,4.48,-4.48,-4.97,-4.18,2.23,2.21,2.22
163.24,6.66,4.51,6.64,4.49,-4.49,-4.97,-4.15,2.18,2.15,2.15
164.88,6.60,4.51,6.58,4.49,-4.49,-4.97,-4.12,2.11,2.09,2.09
166.53,6.54,4.52,6.53,4.49,-4.49,-4.96,-4.09,2.05,2.03,2.03
168.19,6.47,4.50,6.47,4.50,-4.50,-4.96,-4.06,1.98,1.97,1.97
169.87,6.39,4.48,6.41,4.50,-4.50,-4.95,-4.04,1.90,1.91,1.91
171.57,6.32,4.47,6.35,4.50,-4.50,-4.94,-4.02,1.82,1.85,1.85
173.29,6.27,4.48,6.29,4.50,-4.50,-4.92,-4.00,1.77,1.79,1.79
175.02,6.22,4.49,6.23,4.50,-4.50,-4.91,-3.98,1.72,1.73,1.73
176.77,6.17,4.50,6.18,4.50,-4.50,-4.89,-3.97,1.67,1.68,1.68
178.54,6.12,4.50,6.12,4.50,-4.50,-4.87,-3.96,1.62,1.62,1.62
180.32,6.06,4.51,6.06,4.51,-4.51,-4.85,-3.96,1.56,1.56,1.55
182.13,6.01,4.51,6.01,4.51,-4.51,-4.82,-3.96,1.51,1.50,1.50
183.95,5.95,4.51,5.96,4.51,-4.51,-4.80,-3.96,1.44,1.44,1.45
185.79,5.90,4.52,5.91,4.52,-4.52,-4.77,-3.96,1.39,1.39,1.39
187.65,5.85,4.52,5.85,4.52,-4.52,-4.74,-3.97,1.33,1.33,1.34
189.52,5.80,4.53,5.80,4.53,-4.53,-4.70,-3.98,1.28,1.28,1.28
191.42,5.76,4.53,5.75,4.53,-4.53,-4.67,-3.99,1.23,1.22,1.23
193.33,5.70,4.53,5.70,4.53,-4.53,-4.63,-4.00,1.18,1.17,1.17
195.27,5.64,4.53,5.65,4.53,-4.53,-4.59,-4.02,1.12,1.12,1.12
197.22,5.58,4.52,5.59,4.52,-4.52,-4.55,-4.04,1.06,1.07,1.06
199.19,5.52,4.51,5.54,4.52,-4.52,-4.51,-4.06,1.01,1.02,1.02
201.18,5.48,4.52,5.48,4.51,-4.51,-4.46,-4.08,0.98,0.97,0.97
203.19,5.43,4.51,5.42,4.50,-4.50,-4.42,-4.11,0.94,0.93,0.92
205.23,5.38,4.50,5.37,4.48,-4.48,-4.37,-4.13,0.90,0.88,0.88
207.28,5.31,4.47,5.31,4.47,-4.47,-4.32,-4.16,0.85,0.84,0.84
209.35,5.25,4.46,5.25,4.45,-4.45,-4.27,-4.19,0.80,0.80,0.79
211.44,5.19,4.44,5.19,4.43,-4.43,-4.22,-4.22,0.76,0.76,0.76
213.56,5.11,4.39,5.13,4.42,-4.42,-4.17,-4.24,0.70,0.72,0.72
215.69,5.06,4.38,5.08,4.40,-4.40,-4.12,-4.27,0.67,0.68,0.68
217.85,5.00,4.36,5.02,4.38,-4.38,-4.07,-4.30,0.63,0.64,0.65
220.03,4.94,4.34,4.97,4.36,-4.36,-4.01,-4.33,0.59,0.61,0.60
222.23,4.90,4.33,4.91,4.33,-4.33,-3.96,-4.35,0.57,0.57,0.57
224.45,4.84,4.31,4.85,4.30,-4.30,-3.90,-4.37,0.54,0.54,0.54
226.70,4.79,4.29,4.78,4.27,-4.27,-3.84,-4.39,0.52,0.51,0.50
228.96,4.74,4.26,4.72,4.24,-4.24,-3.79,-4.41,0.50,0.48,0.48
231.25,4.68,4.23,4.66,4.21,-4.21,-3.73,-4.43,0.47,0.45,0.45
233.57,4.62,4.20,4.60,4.18,-4.18,-3.67,-4.44,0.44,0.42,0.42
235.90,4.55,4.16,4.54,4.15,-4.15,-3.62,-4.44,0.41,0.40,0.39
238.26,4.49,4.13,4.49,4.12,-4.12,-3.56,-4.45,0.38,0.37,0.36
240.64,4.41,4.06,4.43,4.08,-4.08,-3.50,-4.45,0.33,0.35,0.36
243.05,4.34,4.02,4.37,4.05,-4.05,-3.44,-4.44,0.30,0.33,0.33
245.48,4.26,3.96,4.31,4.01,-4.01,-3.39,-4.43,0.26,0.30,0.30
247.93,4.22,3.95,4.25,3.97,-3.97,-3.33,-4.41,0.25,0.28,0.28
250.41,4.17,3.91,4.20,3.93,-3.93,-3.27,-4.39,0.25,0.27,0.27
252.92,4.15,3.90,4.14,3.89,-3.89,-3.22,-4.36,0.27,0.25,0.25
255.45,4.11,3.89,4.08,3.85,-3.85,-3.16,-4.33,0.27,0.23,0.23
258.00,4.06,3.85,4.02,3.81,-3.81,-3.10,-4.29,0.26,0.22,0.22
260.58,3.98,3.78,3.97,3.77,-3.77,-3.05,-4.24,0.22,0.20,0.20
263.19,3.91,3.73,3.91,3.73,-3.73,-2.99,-4.19,0.19,0.19,0.19
265.82,3.85,3.68,3.86,3.69,-3.69,-2.94,-4.14,0.17,0.17,0.18
268.48,3.80,3.64,3.80,3.64,-3.64,-2.88,-4.08,0.16,0.16,0.16
271.16,3.74,3.59,3.75,3.60,-3.60,-2.83,-4.02,0.15,0.15,0.15
273.87,3.66,3.52,3.69,3.55,-3.55,-2.77,-3.95,0.12,0.14,0.14
276.61,3.61,3.48,3.63,3.50,-3.50,-2.72,-3.88,0.12,0.13,0.13
279.38,3.56,3.46,3.57,3.44,-3.44,-2.67,-3.81,0.12,0.12,0.11
282.17,3.52,3.42,3.50,3.39,-3.39,-2.62,-3.74,0.13,0.11,0.11
284.99,3.46,3.36,3.45,3.34,-3.34,-2.56,-3.66,0.13,0.11,0.11
287.84,3.40,3.29,3.39,3.29,-3.29,-2.51,-3.58,0.11,0.10,0.11
290.72,3.33,3.24,3.34,3.25,-3.25,-2.46,-3.50,0.09,0.10,0.09
293.63,3.27,3.18,3.29,3.20,-3.20,-2.41,-3.41,0.07,0.09,0.09
296.57,3.21,3.12,3.24,3.16,-3.16,-2.36,-3.33,0.06,0.09,0.09
299.53,3.17,3.09,3.19,3.11,-3.11,-2.31,-3.25,0.07,0.09,0.08
302.53,3.12,3.04,3.14,3.06,-3.06,-2.27,-3.16,0.06,0.08,0.09
305.55,3.08,3.00,3.09,3.01,-3.01,-2.22,-3.08,0.07,0.08,0.08
308.61,3.05,2.97,3.04,2.96,-2.96,-2.17,-2.99,0.09,0.08,0.08
311.69,3.00,2.93,2.98,2.91,-2.91,-2.13,-2.91,0.10,0.08,0.08
314.81,2.96,2.89,2.93,2.85,-2.85,-2.08,-2.82,0.11,0.08,0.08
317.96,2.91,2.84,2.87,2.80,-2.80,-2.04,-2.74,0.12,0.07,0.07
321.14,2.84,2.77,2.82,2.74,-2.74,-1.99,-2.66,0.10,0.07,0.08
324.35,2.76,2.69,2.76,2.69,-2.69,-1.95,-2.57,0.08,0.08,0.07
327.59,2.68,2.60,2.71,2.63,-2.63,-1.91,-2.49,0.05,0.08,0.08
330.87,2.62,2.55,2.65,2.57,-2.57,-1.86,-2.41,0.05,0.08,0.08
334.18,2.57,2.50,2.59,2.51,-2.51,-1.82,-2.34,0.07,0.08,0.07
337.52,2.49,2.42,2.53,2.45,-2.45,-1.78,-2.26,0.05,0.08,0.08
340.90,2.44,2.36,2.47,2.38,-2.38,-1.74,-2.18,0.06,0.08,0.08
344.30,2.40,2.32,2.41,2.32,-2.32,-1.70,-2.11,0.08,0.09,0.09
347.75,2.35,2.26,2.35,2.26,-2.26,-1.66,-2.04,0.09,0.09,0.09
351.23,2.31,2.23,2.30,2.20,-2.20,-1.62,-1.97,0.11,0.09,0.09
354.74,2.26,2.16,2.24,2.14,-2.14,-1.58,-1.90,0.12,0.10,0.10
358.28,2.21,2.11,2.19,2.08,-2.08,-1.54,-1.83,0.13,0.10,0.10
361.87,2.12,2.02,2.13,2.03,-2.03,-1.51,-1.76,0.10,0.11,0.11
365.49,2.07,1.96,2.08,1.97,-1.97,-1.47,-1.70,0.10,0.11,0.11
369.14,2.03,1.92,2.03,1.91,-1.91,-1.43,-1.63,0.12,0.12,0.12
372.83,1.97,1.85,1.97,1.85,-1.85,-1.40,-1.57,0.12,0.12,0.13
376.56,1.93,1.81,1.92,1.80,-1.80,-1.36,-1.51,0.14,0.13,0.12
380.33,1.86,1.74,1.87,1.74,-1.74,-1.33,-1.45,0.13,0.13,0.13
384.13,1.79,1.66,1.82,1.68,-1.68,-1.29,-1.39,0.11,0.14,0.14
387.97,1.75,1.61,1.77,1.63,-1.63,-1.26,-1.33,0.13,0.14,0.14
391.85,1.70,1.55,1.72,1.57,-1.57,-1.22,-1.28,0.13,0.15,0.15
395.77,1.67,1.53,1.67,1.52,-1.52,-1.19,-1.22,0.16,0.15,0.15
399.73,1.61,1.46,1.62,1.47,-1.47,-1.15,-1.17,0.15,0.16,0.15
403.72,1.58,1.41,1.58,1.42,-1.42,-1.12,-1.12,0.17,0.16,0.17
407.76,1.53,1.36,1.53,1.36,-1.36,-1.09,-1.07,0.17,0.17,0.17
411.84,1.50,1.33,1.48,1.31,-1.31,-1.06,-1.02,0.20,0.18,0.18
415.96,1.44,1.26,1.44,1.26,-1.26,-1.02,-0.97,0.19,0.18,0.19
420.12,1.39,1.21,1.39,1.20,-1.20,-0.99,-0.92,0.19,0.19,0.18
424.32,1.36,1.17,1.35,1.15,-1.15,-0.96,-0.87,0.21,0.20,0.19
428.56,1.30,1.10,1.31,1.10,-1.10,-0.93,-0.83,0.20,0.20,0.21
432.85,1.26,1.05,1.26,1.05,-1.05,-0.90,-0.78,0.22,0.21,0.22
437.18,1.20,0.99,1.21,0.99,-0.99,-0.87,-0.74,0.21,0.22,0.21
441.55,1.14,0.92,1.16,0.94,-0.94,-0.84,-0.69,0.21,0.23,0.22
445.96,1.11,0.88,1.11,0.88,-0.88,-0.81,-0.65,0.23,0.23,0.23
450.42,1.05,0.81,1.07,0.82,-0.82,-0.77,-0.61,0.23,0.24,0.24
454.93,1.02,0.78,1.02,0.77,-0.77,-0.74,-0.57,0.26,0.25,0.25
459.48,0.99,0.74,0.97,0.71,-0.71,-0.71,-0.53,0.28,0.26,0.26
464.07,0.94,0.67,0.93,0.66,-0.66,-0.68,-0.49,0.28,0.27,0.28
468.71,0.88,0.60,0.89,0.61,-0.61,-0.65,-0.45,0.28,0.28,0.28
473.40,0.83,0.54,0.84,0.55,-0.55,-0.62,-0.41,0.28,0.29,0.29
478.13,0.77,0.47,0.80,0.50,-0.50,-0.59,-0.38,0.28,0.30,0.30
482.91,0.74,0.43,0.76,0.45,-0.45,-0.56,-0.34,0.30,0.31,0.31
487.74,0.70,0.39,0.71,0.39,-0.39,-0.53,-0.30,0.31,0.32,0.32
492.62,0.68,0.36,0.67,0.34,-0.34,-0.50,-0.27,0.34,0.33,0.33
497.55,0.65,0.32,0.63,0.29,-0.29,-0.47,-0.24,0.36,0.34,0.34
