frequency,raw,error,smoothed,error_smoothed,equalization,parametric_eq,fixed_band_eq,equalized_raw,equalized_smoothed,target
20.00,-23.01,-27.66,-23.04,-27.71,27.71,28.98,12.40,4.70,4.67,4.65
20.20,-22.84,-27.53,-22.84,-27.54,27.54,28.63,12.59,4.70,4.70,4.69
20.40,-22.66,-27.38,-22.65,-27.38,27.38,28.29,12.78,4.72,4.73,4.72
20.61,-22.49,-27.24,-22.46,-27.21,27.21,27.95,12.98,4.72,4.75,4.75
20.81,-22.32,-27.11,-22.27,-27.05,27.05,27.63,13.19,4.73,4.78,4.79
21.02,-22.14,-26.97,-22.09,-26.89,26.89,27.31,13.40,4.75,4.80,4.83
21.23,-21.93,-26.77,-21.90,-26.73,26.73,27.02,13.61,4.80,4.82,4.84
21.44,-21.73,-26.59,-21.73,-26.57,26.57,26.73,13.83,4.84,4.84,4.86
21.66,-21.52,-26.40,-21.55,-26.41,26.41,26.46,14.06,4.89,4.86,4.88
21.87,-21.32,-26.20,-21.38,-26.26,26.26,26.20,14.29,4.94,4.88,4.89
22.09,-21.13,-26.03,-21.21,-26.11,26.11,25.96,14.52,4.98,4.90,4.90
22.31,-20.98,-25.88,-21.05,-25.95,25.95,25.72,14.76,4.98,4.91,4.90
22.54,-20.82,-25.74,-20.89,-25.81,25.81,25.50,15.01,4.99,4.92,4.91
22.76,-20.66,-25.58,-20.73,-25.66,25.66,25.29,15.27,5.00,4.93,4.92
22.99,-20.51,-25.43,-20.58,-25.51,25.51,25.09,15.53,5.00,4.94,4.92
23.22,-20.42,-25.35,-20.42,-25.36,25.36,24.91,15.80,4.94,4.94,4.93
23.45,-20.33,-25.27,-20.27,-25.21,25.21,24.73,16.08,4.88,4.95,4.94
23.69,-20.24,-25.19,-20.12,-25.07,25.07,24.56,16.37,4.83,4.95,4.95
23.92,-20.15,-25.11,-19.98,-24.93,24.93,24.40,16.66,4.78,4.96,4.96
24.16,-19.96,-24.93,-19.84,-24.79,24.79,24.25,16.97,4.83,4.96,4.97
24.40,-19.73,-24.70,-19.70,-24.66,24.66,24.11,17.28,4.93,4.96,4.98
24.65,-19.50,-24.47,-19.56,-24.52,24.52,23.97,17.61,5.02,4.96,4.97
24.89,-19.27,-24.23,-19.42,-24.38,24.38,23.84,17.95,5.11,4.96,4.97
25.14,-19.12,-24.08,-19.28,-24.24,24.24,23.72,18.29,5.12,4.97,4.96
25.39,-19.03,-23.99,-19.13,-24.09,24.09,23.60,18.66,5.06,4.97,4.96
25.65,-18.94,-23.90,-18.97,-23.93,23.93,23.48,19.03,4.99,4.97,4.96
25.91,-18.85,-23.80,-18.81,-23.77,23.77,23.38,19.42,4.92,4.96,4.95
26.16,-18.73,-23.69,-18.65,-23.61,23.61,23.27,19.82,4.88,4.96,4.96
26.43,-18.59,-23.55,-18.50,-23.46,23.46,23.17,20.24,4.87,4.96,4.96
26.69,-18.45,-23.41,-18.36,-23.32,23.32,23.07,20.68,4.87,4.95,4.96
26.96,-18.30,-23.26,-18.23,-23.19,23.19,22.97,21.13,4.88,4.95,4.96
27.23,-18.11,-23.07,-18.11,-23.05,23.05,22.88,21.61,4.94,4.95,4.95
27.50,-17.92,-22.88,-17.97,-22.92,22.92,22.79,22.09,5.00,4.95,4.95
27.77,-17.72,-22.66,-17.83,-22.78,22.78,22.69,22.60,5.06,4.95,4.94
28.05,-17.55,-22.49,-17.69,-22.63,22.63,22.60,23.13,5.08,4.94,4.94
28.33,-17.48,-22.41,-17.54,-22.48,22.48,22.51,23.67,5.00,4.94,4.93
28.62,-17.41,-22.35,-17.40,-22.34,22.34,22.41,24.22,4.93,4.94,4.94
28.90,-17.33,-22.27,-17.25,-22.19,22.19,22.31,24.78,4.86,4.94,4.93
29.19,-17.18,-22.10,-17.11,-22.04,22.04,22.21,25.35,4.86,4.93,4.92
29.48,-16.99,-21.92,-16.95,-21.88,21.88,22.11,25.90,4.89,4.93,4.93
29.78,-16.80,-21.73,-16.80,-21.72,21.72,22.00,26.42,4.92,4.92,4.93
30.08,-16.62,-21.55,-16.65,-21.56,21.56,21.89,26.90,4.94,4.92,4.93
30.38,-16.49,-21.41,-16.49,-21.40,21.40,21.78,27.30,4.91,4.91,4.92
30.68,-16.37,-21.28,-16.33,-21.24,21.24,21.66,27.61,4.86,4.91,4.91
30.99,-16.25,-21.15,-16.16,-21.06,21.06,21.53,27.79,4.81,4.90,4.90
31.30,-16.02,-20.92,-15.98,-20.88,20.88,21.40,27.83,4.86,4.90,4.90
31.61,-15.78,-20.68,-15.80,-20.69,20.69,21.26,27.72,4.91,4.89,4.90
31.93,-15.55,-20.44,-15.62,-20.51,20.51,21.12,27.48,4.96,4.89,4.88
32.24,-15.38,-20.25,-15.45,-20.33,20.33,20.97,27.13,4.95,4.88,4.87
32.57,-15.24,-20.11,-15.28,-20.16,20.16,20.81,26.69,4.92,4.87,4.87
32.89,-15.10,-19.97,-15.12,-19.98,19.98,20.65,26.19,4.88,4.87,4.86
33.22,-14.94,-19.80,-14.95,-19.81,19.81,20.48,25.65,4.87,4.86,4.86
33.55,-14.78,-19.64,-14.79,-19.65,19.65,20.31,25.10,4.87,4.86,4.86
33.89,-14.62,-19.48,-14.64,-19.49,19.49,20.13,24.53,4.87,4.85,4.86
34.23,-14.48,-19.33,-14.49,-19.33,19.33,19.94,23.97,4.85,4.85,4.85
34.57,-14.35,-19.19,-14.34,-19.18,19.18,19.75,23.43,4.83,4.84,4.84
34.92,-14.22,-19.06,-14.19,-19.03,19.03,19.55,22.89,4.80,4.83,4.83
35.27,-14.05,-18.88,-14.04,-18.87,18.87,19.35,22.37,4.82,4.83,4.83
35.62,-13.87,-18.69,-13.88,-18.71,18.71,19.14,21.87,4.83,4.82,4.82
35.97,-13.68,-18.49,-13.72,-18.53,18.53,18.93,21.39,4.85,4.82,4.81
36.33,-13.58,-18.39,-13.55,-18.36,18.36,18.71,20.93,4.78,4.81,4.81
36.70,-13.49,-18.30,-13.39,-18.19,18.19,18.49,20.48,4.70,4.80,4.80
37.06,-13.36,-18.15,-13.23,-18.02,18.02,18.27,20.05,4.66,4.79,4.79
37.43,-13.10,-17.88,-13.06,-17.85,17.85,18.05,19.64,4.75,4.78,4.79
37.81,-12.83,-17.61,-12.90,-17.67,17.67,17.82,19.25,4.84,4.78,4.78
38.19,-12.62,-17.39,-12.73,-17.50,17.50,17.59,18.86,4.88,4.77,4.76
38.57,-12.47,-17.23,-12.56,-17.33,17.33,17.36,18.49,4.86,4.76,4.76
38.95,-12.32,-17.07,-12.41,-17.16,17.16,17.13,18.14,4.84,4.75,4.75
39.34,-12.21,-16.95,-12.25,-17.00,17.00,16.89,17.80,4.79,4.75,4.74
39.74,-12.11,-16.83,-12.10,-16.84,16.84,16.66,17.46,4.72,4.74,4.72
40.14,-11.98,-16.71,-11.93,-16.66,16.66,16.43,17.14,4.68,4.73,4.73
40.54,-11.81,-16.53,-11.76,-16.48,16.48,16.19,16.83,4.66,4.72,4.72
40.94,-11.63,-16.34,-11.58,-16.29,16.29,15.96,16.53,4.66,4.70,4.71
41.35,-11.47,-16.17,-11.42,-16.10,16.10,15.73,16.24,4.63,4.69,4.70
41.76,-11.30,-15.98,-11.26,-15.93,15.93,15.50,15.96,4.63,4.67,4.68
42.18,-11.15,-15.81,-11.11,-15.75,15.75,15.27,15.68,4.60,4.65,4.66
42.60,-11.00,-15.63,-10.96,-15.58,15.58,15.04,15.42,4.58,4.62,4.63
43.03,-10.85,-15.47,-10.80,-15.40,15.40,14.81,15.16,4.55,4.60,4.62
43.46,-10.58,-15.17,-10.65,-15.22,15.22,14.58,14.91,4.64,4.57,4.59
43.90,-10.31,-14.85,-10.49,-15.03,15.03,14.36,14.66,4.72,4.54,4.54
44.33,-10.17,-14.68,-10.34,-14.85,14.85,14.13,14.42,4.68,4.51,4.51
44.78,-10.07,-14.54,-10.18,-14.67,14.67,13.91,14.19,4.60,4.48,4.47
45.23,-10.00,-14.44,-10.03,-14.49,14.49,13.69,13.96,4.48,4.46,4.44
45.68,-9.97,-14.38,-9.88,-14.31,14.31,13.48,13.74,4.34,4.43,4.41
46.13,-9.90,-14.29,-9.73,-14.13,14.13,13.26,13.53,4.23,4.40,4.39
46.60,-9.72,-14.10,-9.58,-13.96,13.96,13.05,13.32,4.24,4.38,4.38
47.06,-9.53,-13.89,-9.43,-13.80,13.80,12.84,13.11,4.26,4.37,4.36
47.53,-9.29,-13.64,-9.27,-13.63,13.63,12.63,12.91,4.34,4.35,4.35
48.01,-9.06,-13.41,-9.12,-13.46,13.46,12.42,12.71,4.40,4.34,4.34
48.49,-8.91,-13.24,-8.97,-13.30,13.30,12.22,12.52,4.39,4.33,4.33
48.97,-8.76,-13.08,-8.80,-13.13,13.13,12.02,12.33,4.37,4.33,4.32
49.46,-8.60,-12.91,-8.63,-12.95,12.95,11.82,12.14,4.35,4.32,4.30
49.96,-8.43,-12.73,-8.46,-12.77,12.77,11.62,11.96,4.34,4.32,4.30
50.46,-8.30,-12.61,-8.28,-12.59,12.59,11.43,11.78,4.29,4.31,4.31
50.96,-8.16,-12.47,-8.12,-12.42,12.42,11.24,11.61,4.26,4.30,4.31
51.47,-7.96,-12.26,-7.97,-12.25,12.25,11.05,11.44,4.29,4.28,4.30
51.99,-7.75,-12.03,-7.82,-12.09,12.09,10.86,11.27,4.34,4.27,4.28
52.51,-7.62,-11.89,-7.68,-11.92,11.92,10.68,11.10,4.30,4.24,4.26
53.03,-7.50,-11.74,-7.53,-11.75,11.75,10.49,10.94,4.25,4.21,4.24
53.56,-7.38,-11.58,-7.39,-11.57,11.57,10.32,10.78,4.19,4.18,4.20
54.10,-7.26,-11.41,-7.24,-11.38,11.38,10.14,10.62,4.12,4.14,4.15
54.64,-7.13,-11.23,-7.09,-11.19,11.19,9.96,10.47,4.05,4.10,4.10
55.18,-7.01,-11.06,-6.94,-10.99,10.99,9.79,10.31,3.98,4.05,4.05
55.74,-6.89,-10.88,-6.79,-10.79,10.79,9.62,10.16,3.89,4.00,3.99
56.29,-6.69,-10.63,-6.64,-10.58,10.58,9.45,10.01,3.89,3.94,3.94
56.86,-6.44,-10.32,-6.49,-10.37,10.37,9.29,9.86,3.93,3.88,3.88
57.42,-6.27,-10.08,-6.35,-10.17,10.17,9.13,9.72,3.90,3.82,3.81
58.00,-6.14,-9.89,-6.20,-9.96,9.96,8.97,9.57,3.81,3.75,3.74
58.58,-6.01,-9.69,-6.05,-9.74,9.74,8.81,9.43,3.72,3.68,3.68
59.16,-5.87,-9.50,-5.89,-9.51,9.51,8.65,9.29,3.64,3.62,3.63
59.76,-5.74,-9.30,-5.74,-9.29,9.29,8.50,9.15,3.55,3.55,3.56
60.35,-5.61,-9.10,-5.59,-9.07,9.07,8.35,9.01,3.46,3.49,3.49
60.96,-5.47,-8.90,-5.43,-8.86,8.86,8.20,8.87,3.38,3.42,3.43
61.57,-5.33,-8.68,-5.28,-8.64,8.64,8.05,8.74,3.31,3.36,3.35
62.18,-5.19,-8.47,-5.14,-8.44,8.44,7.91,8.60,3.25,3.30,3.28
62.80,-5.04,-8.27,-5.01,-8.24,8.24,7.76,8.47,3.20,3.24,3.23
63.43,-4.86,-8.03,-4.88,-8.06,8.06,7.62,8.33,3.19,3.18,3.17
64.07,-4.67,-7.80,-4.74,-7.86,7.86,7.48,8.20,3.19,3.13,3.12
64.71,-4.55,-7.62,-4.59,-7.67,7.67,7.34,8.07,3.12,3.07,3.07
65.35,-4.44,-7.46,-4.46,-7.49,7.49,7.21,7.94,3.05,3.03,3.02
66.01,-4.32,-7.30,-4.33,-7.31,7.31,7.08,7.81,2.99,2.98,2.97
66.67,-4.17,-7.10,-4.21,-7.15,7.15,6.95,7.68,2.97,2.94,2.93
67.33,-4.06,-6.96,-4.09,-6.98,6.98,6.82,7.55,2.92,2.90,2.89
68.01,-3.99,-6.85,-3.96,-6.82,6.82,6.69,7.42,2.83,2.86,2.86
68.69,-3.89,-6.71,-3.85,-6.67,6.67,6.56,7.29,2.77,2.82,2.82
69.37,-3.76,-6.54,-3.73,-6.51,6.51,6.44,7.16,2.75,2.78,2.78
70.07,-3.61,-6.35,-3.61,-6.36,6.36,6.32,7.04,2.75,2.75,2.74
70.77,-3.46,-6.18,-3.49,-6.20,6.20,6.20,6.91,2.74,2.71,2.72
71.48,-3.41,-6.09,-3.38,-6.06,6.06,6.08,6.79,2.64,2.67,2.68
72.19,-3.36,-6.01,-3.27,-5.91,5.91,5.96,6.66,2.55,2.64,2.65
72.91,-3.20,-5.81,-3.16,-5.76,5.76,5.85,6.54,2.56,2.60,2.61
73.64,-3.03,-5.60,-3.05,-5.61,5.61,5.74,6.41,2.58,2.56,2.57
74.38,-2.89,-5.43,-2.95,-5.47,5.47,5.62,6.29,2.58,2.53,2.54
75.12,-2.77,-5.26,-2.85,-5.34,5.34,5.51,6.17,2.57,2.49,2.49
75.87,-2.73,-5.18,-2.74,-5.20,5.20,5.41,6.04,2.47,2.46,2.45
76.63,-2.61,-5.03,-2.65,-5.07,5.07,5.30,5.92,2.46,2.42,2.42
77.40,-2.52,-4.91,-2.57,-4.96,4.96,5.19,5.80,2.44,2.39,2.39
78.17,-2.50,-4.85,-2.50,-4.85,4.85,5.09,5.68,2.35,2.36,2.35
78.95,-2.50,-4.83,-2.42,-4.75,4.75,4.99,5.56,2.25,2.33,2.33
79.74,-2.33,-4.63,-2.34,-4.64,4.64,4.89,5.44,2.31,2.30,2.30
80.54,-2.27,-4.54,-2.28,-4.56,4.56,4.79,5.32,2.29,2.28,2.27
81.35,-2.26,-4.51,-2.23,-4.49,4.49,4.69,5.20,2.22,2.26,2.25
82.16,-2.22,-4.45,-2.17,-4.41,4.41,4.60,5.08,2.19,2.24,2.23
82.98,-2.04,-4.27,-2.12,-4.34,4.34,4.50,4.96,2.30,2.23,2.23
83.81,-2.04,-4.25,-2.06,-4.28,4.28,4.41,4.84,2.23,2.21,2.21
84.65,-2.04,-4.23,-2.01,-4.21,4.21,4.32,4.72,2.17,2.20,2.19
85.50,-1.98,-4.18,-1.96,-4.15,4.15,4.23,4.61,2.17,2.19,2.19
86.35,-1.87,-4.06,-1.90,-4.08,4.08,4.14,4.49,2.21,2.19,2.19
87.22,-1.81,-3.99,-1.84,-4.02,4.02,4.05,4.37,2.20,2.18,2.18
88.09,-1.81,-3.98,-1.78,-3.95,3.95,3.96,4.25,2.14,2.17,2.17
88.97,-1.81,-3.99,-1.73,-3.89,3.89,3.88,4.14,2.08,2.16,2.17
89.86,-1.66,-3.82,-1.67,-3.82,3.82,3.79,4.02,2.16,2.15,2.16
90.76,-1.59,-3.73,-1.62,-3.76,3.76,3.71,3.90,2.17,2.14,2.14
91.66,-1.58,-3.72,-1.59,-3.71,3.71,3.63,3.78,2.13,2.13,2.14
92.58,-1.58,-3.68,-1.55,-3.66,3.66,3.55,3.67,2.08,2.11,2.10
93.51,-1.48,-3.58,-1.50,-3.59,3.59,3.47,3.55,2.11,2.09,2.10
94.44,-1.38,-3.46,-1.46,-3.53,3.53,3.39,3.44,2.15,2.07,2.07
95.39,-1.36,-3.41,-1.42,-3.46,3.46,3.32,3.32,2.10,2.04,2.05
96.34,-1.36,-3.36,-1.39,-3.40,3.40,3.24,3.21,2.04,2.01,2.00
97.30,-1.36,-3.34,-1.35,-3.33,3.33,3.17,3.09,1.97,1.98,1.98
98.28,-1.36,-3.30,-1.31,-3.26,3.26,3.09,2.98,1.90,1.95,1.94
99.26,-1.36,-3.27,-1.28,-3.19,3.19,3.02,2.86,1.83,1.91,1.90
100.25,-1.35,-3.22,-1.26,-3.12,3.12,2.95,2.75,1.77,1.87,1.87
101.25,-1.28,-3.10,-1.23,-3.05,3.05,2.88,2.64,1.77,1.82,1.82
102.27,-1.13,-2.90,-1.21,-2.98,2.98,2.81,2.52,1.85,1.77,1.77
103.29,-1.13,-2.85,-1.19,-2.90,2.90,2.74,2.41,1.77,1.71,1.71
104.32,-1.13,-2.80,-1.18,-2.83,2.83,2.68,2.30,1.70,1.65,1.67
105.37,-1.13,-2.74,-1.16,-2.75,2.75,2.61,2.19,1.62,1.59,1.61
106.42,-1.13,-2.67,-1.15,-2.67,2.67,2.55,2.09,1.54,1.52,1.54
107.48,-1.13,-2.59,-1.13,-2.59,2.59,2.48,1.98,1.45,1.45,1.46
108.56,-1.13,-2.51,-1.12,-2.50,2.50,2.42,1.88,1.37,1.38,1.38
109.64,-1.13,-2.43,-1.12,-2.41,2.41,2.36,1.78,1.28,1.30,1.30
110.74,-1.13,-2.35,-1.11,-2.33,2.33,2.30,1.68,1.20,1.21,1.22
111.85,-1.13,-2.27,-1.12,-2.25,2.25,2.24,1.58,1.12,1.13,1.14
112.97,-1.13,-2.18,-1.12,-2.17,2.17,2.18,1.49,1.04,1.05,1.05
114.10,-1.13,-2.10,-1.13,-2.10,2.10,2.12,1.40,0.97,0.97,0.97
115.24,-1.13,-2.02,-1.13,-2.02,2.02,2.07,1.31,0.89,0.89,0.88
116.39,-1.13,-1.93,-1.13,-1.94,1.94,2.01,1.23,0.81,0.81,0.80
117.55,-1.13,-1.85,-1.13,-1.87,1.87,1.95,1.14,0.74,0.74,0.72
118.73,-1.13,-1.78,-1.13,-1.80,1.80,1.90,1.07,0.67,0.67,0.65
119.92,-1.13,-1.72,-1.13,-1.74,1.74,1.85,0.99,0.61,0.61,0.59
121.12,-1.13,-1.66,-1.13,-1.68,1.68,1.80,0.93,0.55,0.55,0.53
122.33,-1.13,-1.61,-1.13,-1.62,1.62,1.74,0.86,0.49,0.49,0.48
123.55,-1.13,-1.57,-1.13,-1.57,1.57,1.69,0.80,0.44,0.44,0.44
124.79,-1.13,-1.52,-1.13,-1.52,1.52,1.64,0.75,0.39,0.39,0.39
126.03,-1.13,-1.48,-1.13,-1.48,1.48,1.60,0.69,0.34,0.34,0.35
127.29,-1.13,-1.44,-1.13,-1.43,1.43,1.55,0.65,0.30,0.30,0.31
128.57,-1.13,-1.39,-1.13,-1.39,1.39,1.50,0.60,0.26,0.26,0.26
129.85,-1.13,-1.35,-1.13,-1.35,1.35,1.46,0.56,0.22,0.22,0.22
131.15,-1.13,-1.31,-1.13,-1.31,1.31,1.41,0.53,0.17,0.17,0.18
132.46,-1.13,-1.27,-1.13,-1.26,1.26,1.37,0.50,0.13,0.13,0.13
133.79,-1.13,-1.23,-1.13,-1.22,1.22,1.32,0.47,0.09,0.09,0.10
135.12,-1.13,-1.17,-1.13,-1.18,1.18,1.28,0.45,0.05,0.05,0.04
136.48,-1.13,-1.14,-1.13,-1.14,1.14,1.24,0.43,0.01,0.01,0.01
137.84,-1.13,-1.09,-1.12,-1.08,1.08,1.20,0.41,-0.05,-0.04,-0.04
139.22,-1.13,-1.03,-1.12,-1.03,1.03,1.16,0.39,-0.10,-0.08,-0.10
140.61,-1.13,-0.98,-1.11,-0.98,0.98,1.12,0.38,-0.15,-0.13,-0.15
142.02,-1.13,-0.95,-1.12,-0.93,0.93,1.08,0.37,-0.20,-0.18,-0.18
143.44,-1.13,-0.90,-1.12,-0.89,0.89,1.04,0.37,-0.24,-0.24,-0.23
144.87,-1.13,-0.85,-1.13,-0.84,0.84,1.00,0.36,-0.29,-0.30,-0.28
146.32,-1.13,-0.79,-1.15,-0.79,0.79,0.97,0.36,-0.34,-0.36,-0.34
147.78,-1.13,-0.74,-1.17,-0.74,0.74,0.93,0.35,-0.39,-0.43,-0.39
149.26,-1.13,-0.67,-1.18,-0.69,0.69,0.90,0.35,-0.44,-0.50,-0.47
150.75,-1.13,-0.58,-1.21,-0.64,0.64,0.86,0.35,-0.50,-0.57,-0.55
152.26,-1.14,-0.52,-1.23,-0.58,0.58,0.83,0.35,-0.56,-0.65,-0.63
153.78,-1.28,-0.57,-1.25,-0.52,0.52,0.80,0.35,-0.76,-0.73,-0.71
155.32,-1.35,-0.54,-1.27,-0.47,0.47,0.76,0.35,-0.88,-0.80,-0.81
156.88,-1.36,-0.47,-1.29,-0.41,0.41,0.73,0.35,-0.95,-0.88,-0.89
158.44,-1.36,-0.39,-1.31,-0.35,0.35,0.70,0.35,-1.01,-0.96,-0.97
160.03,-1.36,-0.31,-1.33,-0.30,0.30,0.67,0.35,-1.06,-1.03,-1.05
161.63,-1.36,-0.24,-1.35,-0.25,0.25,0.65,0.36,-1.11,-1.10,-1.12
163.24,-1.36,-0.18,-1.36,-0.21,0.21,0.62,0.36,-1.16,-1.16,-1.18
164.88,-1.36,-0.14,-1.37,-0.16,0.16,0.59,0.36,-1.20,-1.21,-1.23
166.53,-1.36,-0.09,-1.38,-0.13,0.13,0.56,0.36,-1.23,-1.25,-1.27
168.19,-1.36,-0.06,-1.37,-0.09,0.09,0.54,0.36,-1.27,-1.28,-1.31
169.87,-1.36,-0.03,-1.36,-0.05,0.05,0.51,0.36,-1.31,-1.31,-1.33
171.57,-1.36,-0.02,-1.35,-0.02,0.02,0.49,0.36,-1.34,-1.32,-1.34
173.29,-1.36,-0.02,-1.35,-0.01,0.01,0.47,0.35,-1.35,-1.34,-1.34
175.02,-1.36,-0.03,-1.35,-0.01,0.01,0.45,0.35,-1.35,-1.35,-1.34
176.77,-1.36,-0.02,-1.36,-0.01,0.01,0.42,0.35,-1.35,-1.35,-1.35
178.54,-1.36,-0.02,-1.38,-0.02,0.02,0.40,0.35,-1.34,-1.36,-1.35
180.32,-1.36,-0.02,-1.40,-0.03,0.03,0.38,0.34,-1.33,-1.36,-1.34
182.13,-1.36,-0.02,-1.41,-0.04,0.04,0.36,0.34,-1.32,-1.37,-1.34
183.95,-1.36,-0.01,-1.43,-0.06,0.06,0.35,0.33,-1.30,-1.38,-1.35
185.79,-1.36,0.00,-1.45,-0.07,0.07,0.33,0.32,-1.29,-1.39,-1.37
187.65,-1.52,-0.13,-1.48,-0.08,0.08,0.31,0.32,-1.44,-1.40,-1.39
189.52,-1.58,-0.17,-1.50,-0.08,0.08,0.29,0.31,-1.50,-1.41,-1.41
191.42,-1.58,-0.14,-1.52,-0.09,0.09,0.28,0.30,-1.50,-1.43,-1.44
193.33,-1.58,-0.12,-1.54,-0.08,0.08,0.26,0.30,-1.50,-1.45,-1.46
195.27,-1.58,-0.11,-1.56,-0.08,0.08,0.25,0.29,-1.50,-1.48,-1.47
197.22,-1.58,-0.09,-1.57,-0.07,0.07,0.24,0.28,-1.51,-1.50,-1.50
199.19,-1.58,-0.04,-1.58,-0.06,0.06,0.23,0.27,-1.52,-1.52,-1.54
201.18,-1.58,-0.03,-1.59,-0.05,0.05,0.21,0.26,-1.53,-1.55,-1.55
203.19,-1.58,-0.01,-1.60,-0.03,0.03,0.20,0.25,-1.55,-1.57,-1.57
205.23,-1.58,0.01,-1.60,-0.01,0.01,0.19,0.24,-1.57,-1.59,-1.60
207.28,-1.58,0.02,-1.59,0.02,-0.02,0.18,0.23,-1.60,-1.61,-1.60
209.35,-1.58,0.05,-1.58,0.05,-0.05,0.18,0.22,-1.63,-1.63,-1.63
211.44,-1.58,0.08,-1.58,0.07,-0.07,0.17,0.21,-1.65,-1.65,-1.66
213.56,-1.58,0.08,-1.58,0.08,-0.08,0.16,0.20,-1.67,-1.67,-1.67
215.69,-1.58,0.09,-1.58,0.10,-0.10,0.16,0.19,-1.68,-1.68,-1.67
217.85,-1.58,0.12,-1.57,0.13,-0.13,0.15,0.18,-1.71,-1.70,-1.70
220.03,-1.58,0.13,-1.57,0.15,-0.15,0.15,0.17,-1.73,-1.71,-1.71
222.23,-1.58,0.16,-1.56,0.16,-0.16,0.14,0.16,-1.75,-1.73,-1.74
224.45,-1.58,0.16,-1.57,0.17,-0.17,0.14,0.15,-1.75,-1.74,-1.74
226.70,-1.58,0.16,-1.57,0.18,-0.18,0.14,0.14,-1.76,-1.75,-1.74
228.96,-1.58,0.18,-1.58,0.17,-0.17,0.14,0.14,-1.76,-1.76,-1.76
231.25,-1.58,0.18,-1.59,0.18,-0.18,0.14,0.13,-1.76,-1.77,-1.76
233.57,-1.58,0.19,-1.60,0.17,-0.17,0.14,0.12,-1.75,-1.77,-1.77
235.90,-1.58,0.20,-1.62,0.16,-0.16,0.14,0.12,-1.74,-1.78,-1.78
238.26,-1.58,0.20,-1.64,0.14,-0.14,0.14,0.12,-1.72,-1.78,-1.79
240.64,-1.58,0.21,-1.67,0.11,-0.11,0.14,0.11,-1.69,-1.78,-1.79
243.05,-1.74,0.04,-1.70,0.08,-0.08,0.15,0.11,-1.82,-1.78,-1.78
245.48,-1.81,-0.03,-1.74,0.04,-0.04,0.15,0.11,-1.85,-1.78,-1.78
247.93,-1.81,-0.04,-1.77,0.00,-0.00,0.16,0.12,-1.82,-1.78,-1.77
250.41,-1.81,-0.03,-1.80,-0.03,0.03,0.16,0.12,-1.78,-1.77,-1.78
252.92,-1.81,-0.05,-1.84,-0.07,0.07,0.17,0.12,-1.74,-1.77,-1.77
255.45,-1.81,-0.07,-1.88,-0.12,0.12,0.18,0.13,-1.69,-1.76,-1.74
258.00,-1.95,-0.21,-1.92,-0.17,0.17,0.18,0.13,-1.78,-1.75,-1.74
260.58,-2.04,-0.30,-1.96,-0.22,0.22,0.19,0.14,-1.82,-1.74,-1.74
263.19,-2.04,-0.31,-2.00,-0.28,0.28,0.20,0.15,-1.77,-1.73,-1.73
265.82,-2.04,-0.31,-2.04,-0.33,0.33,0.21,0.16,-1.72,-1.72,-1.73
268.48,-2.04,-0.34,-2.08,-0.37,0.37,0.23,0.17,-1.67,-1.70,-1.70
271.16,-2.04,-0.35,-2.10,-0.42,0.42,0.24,0.19,-1.62,-1.69,-1.69
273.87,-2.04,-0.36,-2.13,-0.47,0.47,0.25,0.20,-1.57,-1.67,-1.68
276.61,-2.17,-0.53,-2.17,-0.52,0.52,0.26,0.22,-1.65,-1.65,-1.64
279.38,-2.25,-0.62,-2.20,-0.57,0.57,0.28,0.23,-1.68,-1.63,-1.63
282.17,-2.27,-0.66,-2.22,-0.61,0.61,0.29,0.25,-1.66,-1.60,-1.61
284.99,-2.27,-0.69,-2.24,-0.66,0.66,0.31,0.27,-1.62,-1.58,-1.58
287.84,-2.27,-0.71,-2.24,-0.69,0.69,0.33,0.29,-1.58,-1.55,-1.56
290.72,-2.27,-0.75,-2.26,-0.73,0.73,0.34,0.31,-1.54,-1.53,-1.52
293.63,-2.27,-0.77,-2.27,-0.77,0.77,0.36,0.33,-1.50,-1.50,-1.50
296.57,-2.27,-0.80,-2.28,-0.81,0.81,0.38,0.35,-1.46,-1.47,-1.47
299.53,-2.27,-0.82,-2.29,-0.84,0.84,0.40,0.37,-1.44,-1.45,-1.45
302.53,-2.27,-0.84,-2.29,-0.86,0.86,0.42,0.40,-1.41,-1.43,-1.43
305.55,-2.27,-0.87,-2.29,-0.88,0.88,0.44,0.42,-1.40,-1.41,-1.40
308.61,-2.27,-0.89,-2.28,-0.88,0.88,0.46,0.45,-1.39,-1.39,-1.38
311.69,-2.27,-0.91,-2.27,-0.89,0.89,0.48,0.47,-1.38,-1.38,-1.37
314.81,-2.27,-0.93,-2.27,-0.91,0.91,0.51,0.50,-1.37,-1.37,-1.34
317.96,-2.27,-0.93,-2.27,-0.92,0.92,0.53,0.52,-1.36,-1.36,-1.34
321.14,-2.27,-0.92,-2.27,-0.93,0.93,0.55,0.55,-1.35,-1.35,-1.35
324.35,-2.27,-0.93,-2.27,-0.93,0.93,0.58,0.58,-1.34,-1.34,-1.34
327.59,-2.27,-0.94,-2.27,-0.94,0.94,0.60,0.61,-1.33,-1.33,-1.33
330.87,-2.27,-0.94,-2.27,-0.95,0.95,0.63,0.63,-1.32,-1.32,-1.33
334.18,-2.27,-0.95,-2.27,-0.96,0.96,0.65,0.66,-1.31,-1.31,-1.32
337.52,-2.27,-0.96,-2.27,-0.97,0.97,0.68,0.69,-1.30,-1.30,-1.31
340.90,-2.27,-0.98,-2.27,-0.99,0.99,0.70,0.72,-1.29,-1.29,-1.29
344.30,-2.27,-0.99,-2.27,-1.00,1.00,0.73,0.75,-1.27,-1.27,-1.28
347.75,-2.27,-1.01,-2.27,-1.02,1.02,0.76,0.78,-1.25,-1.25,-1.26
351.23,-2.27,-1.04,-2.27,-1.04,1.04,0.79,0.82,-1.24,-1.24,-1.24
354.74,-2.27,-1.05,-2.27,-1.06,1.06,0.81,0.85,-1.21,-1.21,-1.22
358.28,-2.27,-1.08,-2.27,-1.08,1.08,0.84,0.88,-1.19,-1.19,-1.19
361.87,-2.27,-1.10,-2.27,-1.10,1.10,0.87,0.91,-1.17,-1.17,-1.17
365.49,-2.27,-1.13,-2.27,-1.12,1.12,0.90,0.95,-1.15,-1.15,-1.14
369.14,-2.27,-1.14,-2.27,-1.15,1.15,0.93,0.98,-1.12,-1.12,-1.13
372.83,-2.27,-1.17,-2.27,-1.17,1.17,0.96,1.02,-1.10,-1.10,-1.10
376.56,-2.27,-1.19,-2.27,-1.19,1.19,0.99,1.05,-1.08,-1.08,-1.08
380.33,-2.27,-1.22,-2.27,-1.21,1.21,1.02,1.09,-1.07,-1.07,-1.05
384.13,-2.27,-1.24,-2.27,-1.22,1.22,1.05,1.12,-1.05,-1.05,-1.03
387.97,-2.27,-1.25,-2.27,-1.24,1.24,1.08,1.16,-1.03,-1.03,-1.03
391.85,-2.27,-1.25,-2.27,-1.25,1.25,1.10,1.19,-1.02,-1.02,-1.02
395.77,-2.27,-1.26,-2.27,-1.26,1.26,1.13,1.23,-1.01,-1.01,-1.01
399.73,-2.27,-1.27,-2.27,-1.27,1.27,1.16,1.27,-1.00,-1.00,-1.00
403.72,-2.27,-1.28,-2.27,-1.28,1.28,1.19,1.30,-0.99,-0.99,-0.99
407.76,-2.27,-1.29,-2.27,-1.29,1.29,1.22,1.34,-0.98,-0.98,-0.98
411.84,-2.27,-1.30,-2.27,-1.29,1.29,1.25,1.38,-0.98,-0.98,-0.98
415.96,-2.27,-1.30,-2.27,-1.29,1.29,1.28,1.41,-0.98,-0.98,-0.97
420.12,-2.27,-1.30,-2.27,-1.30,1.30,1.31,1.45,-0.97,-0.97,-0.97
424.32,-2.27,-1.30,-2.27,-1.30,1.30,1.33,1.48,-0.97,-0.97,-0.97
428.56,-2.27,-1.30,-2.27,-1.30,1.30,1.36,1.52,-0.97,-0.97,-0.97
432.85,-2.27,-1.30,-2.27,-1.31,1.31,1.39,1.55,-0.96,-0.96,-0.97
437.18,-2.27,-1.31,-2.27,-1.31,1.31,1.41,1.58,-0.96,-0.96,-0.96
