frequency,raw,error,smoothed,error_smoothed,equalization,parametric_eq,fixed_band_eq,equalized_raw,equalized_smoothed,target
20.00,-18.28,-19.35,-18.36,-19.45,19.45,17.88,7.11,1.17,1.09,1.07
20.20,-18.21,-19.31,-18.21,-19.32,19.32,17.93,7.27,1.11,1.11,1.10
20.40,-18.10,-19.23,-18.06,-19.19,19.19,17.97,7.43,1.10,1.13,1.13
20.61,-17.93,-19.08,-17.91,-19.06,19.06,17.99,7.59,1.13,1.15,1.15
20.81,-17.78,-18.96,-17.76,-18.93,18.93,17.99,7.76,1.15,1.17,1.18
21.02,-17.62,-18.83,-17.60,-18.79,18.79,17.97,7.94,1.17,1.19,1.21
21.23,-17.47,-18.69,-17.45,-18.65,18.65,17.93,8.11,1.18,1.20,1.22
21.44,-17.29,-18.52,-17.29,-18.51,18.51,17.88,8.29,1.22,1.22,1.23
21.66,-17.14,-18.38,-17.14,-18.36,18.36,17.82,8.48,1.22,1.23,1.24
21.87,-16.98,-18.22,-16.98,-18.22,18.22,17.73,8.67,1.24,1.24,1.24
22.09,-16.81,-18.06,-16.82,-18.07,18.07,17.63,8.87,1.26,1.24,1.25
22.31,-16.65,-17.90,-16.66,-17.91,17.91,17.52,9.07,1.26,1.25,1.25
22.54,-16.50,-17.75,-16.49,-17.75,17.75,17.40,9.28,1.24,1.25,1.25
22.76,-16.32,-17.57,-16.33,-17.58,17.58,17.26,9.49,1.26,1.25,1.25
22.99,-16.17,-17.41,-16.17,-17.42,17.42,17.11,9.71,1.25,1.25,1.24
23.22,-16.01,-17.25,-16.01,-17.25,17.25,16.96,9.94,1.24,1.25,1.24
23.45,-15.84,-17.08,-15.84,-17.09,17.09,16.79,10.17,1.25,1.25,1.24
23.69,-15.68,-16.92,-15.68,-16.93,16.93,16.62,10.40,1.24,1.24,1.24
23.92,-15.53,-16.77,-15.52,-16.76,16.76,16.45,10.65,1.23,1.24,1.24
24.16,-15.35,-16.59,-15.36,-16.60,16.60,16.26,10.90,1.25,1.24,1.24
24.40,-15.20,-16.44,-15.20,-16.43,16.43,16.08,11.16,1.23,1.24,1.24
24.65,-15.04,-16.27,-15.03,-16.27,16.27,15.89,11.42,1.23,1.23,1.23
24.89,-14.87,-16.10,-14.87,-16.10,16.10,15.70,11.69,1.24,1.23,1.23
25.14,-14.71,-15.94,-14.71,-15.94,15.94,15.51,11.97,1.23,1.23,1.23
25.39,-14.56,-15.79,-14.55,-15.78,15.78,15.31,12.25,1.22,1.23,1.23
25.65,-14.38,-15.61,-14.39,-15.62,15.62,15.12,12.55,1.23,1.23,1.23
25.91,-14.22,-15.44,-14.22,-15.45,15.45,14.92,12.84,1.23,1.23,1.22
26.16,-14.07,-15.29,-14.06,-15.29,15.29,14.73,13.15,1.22,1.22,1.22
26.43,-13.89,-15.11,-13.90,-15.12,15.12,14.53,13.46,1.23,1.22,1.22
26.69,-13.74,-14.96,-13.74,-14.96,14.96,14.34,13.78,1.22,1.22,1.22
26.96,-13.58,-14.80,-13.58,-14.80,14.80,14.14,14.10,1.22,1.21,1.22
27.23,-13.43,-14.64,-13.43,-14.64,14.64,13.95,14.42,1.20,1.21,1.21
27.50,-13.28,-14.49,-13.27,-14.48,14.48,13.76,14.75,1.20,1.21,1.21
27.77,-13.11,-14.31,-13.11,-14.32,14.32,13.58,15.08,1.21,1.20,1.20
28.05,-12.95,-14.15,-12.96,-14.16,14.16,13.39,15.40,1.21,1.20,1.20
28.33,-12.79,-13.98,-12.80,-14.00,14.00,13.20,15.72,1.21,1.20,1.19
28.62,-12.64,-13.83,-12.65,-13.84,13.84,13.02,16.03,1.20,1.19,1.19
28.90,-12.50,-13.69,-12.49,-13.68,13.68,12.84,16.33,1.18,1.19,1.19
29.19,-12.34,-13.52,-12.34,-13.52,13.52,12.66,16.60,1.18,1.18,1.18
29.48,-12.19,-13.37,-12.19,-13.37,13.37,12.49,16.86,1.18,1.18,1.18
29.78,-12.04,-13.21,-12.04,-13.21,13.21,12.32,17.08,1.17,1.17,1.17
30.08,-11.90,-13.07,-11.89,-13.05,13.05,12.14,17.27,1.15,1.17,1.17
30.38,-11.73,-12.89,-11.74,-12.90,12.90,11.98,17.42,1.16,1.16,1.16
30.68,-11.58,-12.74,-11.59,-12.74,12.74,11.81,17.53,1.16,1.16,1.16
30.99,-11.43,-12.58,-11.44,-12.59,12.59,11.64,17.58,1.16,1.15,1.15
31.30,-11.28,-12.42,-11.29,-12.43,12.43,11.48,17.58,1.15,1.15,1.14
31.61,-11.14,-12.28,-11.14,-12.28,12.28,11.32,17.54,1.14,1.14,1.14
31.93,-10.99,-12.12,-10.99,-12.12,12.12,11.16,17.44,1.13,1.13,1.13
32.24,-10.84,-11.96,-10.84,-11.97,11.97,11.01,17.29,1.13,1.13,1.12
32.57,-10.69,-11.81,-10.69,-11.81,11.81,10.86,17.10,1.12,1.12,1.12
32.89,-10.55,-11.66,-10.55,-11.66,11.66,10.71,16.88,1.11,1.11,1.11
33.22,-10.40,-11.50,-10.40,-11.50,11.50,10.56,16.62,1.10,1.10,1.10
33.55,-10.25,-11.35,-10.25,-11.35,11.35,10.41,16.34,1.10,1.10,1.10
33.89,-10.11,-11.20,-10.11,-11.20,11.20,10.27,16.04,1.08,1.09,1.09
34.23,-9.96,-11.04,-9.96,-11.04,11.04,10.12,15.73,1.08,1.08,1.08
34.57,-9.82,-10.89,-9.82,-10.89,10.89,9.98,15.40,1.07,1.07,1.07
34.92,-9.67,-10.73,-9.67,-10.73,10.73,9.85,15.07,1.06,1.06,1.06
35.27,-9.53,-10.58,-9.53,-10.58,10.58,9.71,14.74,1.04,1.05,1.05
35.62,-9.38,-10.42,-9.38,-10.42,10.42,9.57,14.40,1.04,1.04,1.04
35.97,-9.23,-10.26,-9.24,-10.27,10.27,9.44,14.07,1.04,1.03,1.03
36.33,-9.10,-10.12,-9.09,-10.11,10.11,9.31,13.73,1.02,1.02,1.02
36.70,-8.94,-9.95,-8.95,-9.96,9.96,9.18,13.41,1.02,1.01,1.01
37.06,-8.81,-9.81,-8.81,-9.81,9.81,9.06,13.08,1.00,1.00,1.00
37.43,-8.66,-9.65,-8.66,-9.65,9.65,8.93,12.77,1.00,0.99,0.99
37.81,-8.52,-9.50,-8.52,-9.50,9.50,8.81,12.46,0.98,0.98,0.98
38.19,-8.39,-9.36,-8.38,-9.35,9.35,8.69,12.15,0.96,0.97,0.97
38.57,-8.23,-9.19,-8.24,-9.20,9.20,8.57,11.85,0.96,0.96,0.96
38.95,-8.10,-9.05,-8.10,-9.04,9.04,8.45,11.56,0.94,0.95,0.95
39.34,-7.97,-8.90,-7.96,-8.89,8.89,8.33,11.28,0.92,0.94,0.93
39.74,-7.81,-8.73,-7.82,-8.75,8.75,8.22,11.00,0.93,0.93,0.92
40.14,-7.69,-8.60,-7.68,-8.60,8.60,8.10,10.73,0.91,0.92,0.91
40.54,-7.55,-8.45,-7.55,-8.45,8.45,7.99,10.47,0.90,0.91,0.90
40.94,-7.41,-8.30,-7.42,-8.31,8.31,7.88,10.21,0.90,0.89,0.89
41.35,-7.28,-8.16,-7.29,-8.17,8.17,7.77,9.96,0.89,0.88,0.88
41.76,-7.14,-8.01,-7.16,-8.03,8.03,7.67,9.71,0.89,0.87,0.87
42.18,-7.02,-7.88,-7.03,-7.88,7.88,7.56,9.47,0.86,0.86,0.86
42.60,-6.90,-7.75,-6.90,-7.75,7.75,7.46,9.24,0.85,0.84,0.85
43.03,-6.77,-7.61,-6.78,-7.61,7.61,7.36,9.01,0.84,0.83,0.84
43.46,-6.67,-7.49,-6.66,-7.47,7.47,7.26,8.78,0.80,0.81,0.82
43.90,-6.55,-7.35,-6.54,-7.34,7.34,7.16,8.56,0.78,0.80,0.80
44.33,-6.44,-7.22,-6.42,-7.20,7.20,7.06,8.35,0.76,0.79,0.78
44.78,-6.31,-7.07,-6.30,-7.07,7.07,6.96,8.14,0.76,0.77,0.76
45.23,-6.19,-6.93,-6.19,-6.94,6.94,6.87,7.94,0.75,0.75,0.74
45.68,-6.07,-6.80,-6.08,-6.82,6.82,6.77,7.74,0.75,0.74,0.73
46.13,-5.96,-6.67,-5.97,-6.69,6.69,6.68,7.55,0.73,0.72,0.71
46.60,-5.86,-6.56,-5.87,-6.57,6.57,6.59,7.35,0.70,0.70,0.70
47.06,-5.76,-6.44,-5.77,-6.44,6.44,6.50,7.17,0.68,0.68,0.68
47.53,-5.65,-6.31,-5.67,-6.32,6.32,6.41,6.99,0.67,0.65,0.66
48.01,-5.57,-6.22,-5.57,-6.20,6.20,6.32,6.81,0.63,0.63,0.65
48.49,-5.47,-6.09,-5.48,-6.09,6.09,6.23,6.63,0.62,0.61,0.62
48.97,-5.39,-5.98,-5.38,-5.97,5.97,6.15,6.46,0.58,0.59,0.59
49.46,-5.31,-5.87,-5.29,-5.86,5.86,6.06,6.29,0.55,0.57,0.56
49.96,-5.20,-5.73,-5.21,-5.75,5.75,5.98,6.13,0.55,0.54,0.53
50.46,-5.14,-5.65,-5.12,-5.64,5.64,5.90,5.97,0.50,0.52,0.51
50.96,-5.04,-5.53,-5.04,-5.53,5.53,5.82,5.81,0.49,0.49,0.49
51.47,-4.97,-5.43,-4.96,-5.43,5.43,5.74,5.66,0.46,0.47,0.46
51.99,-4.88,-5.32,-4.88,-5.32,5.32,5.66,5.51,0.44,0.44,0.44
52.51,-4.81,-5.23,-4.80,-5.22,5.22,5.58,5.36,0.41,0.42,0.42
53.03,-4.71,-5.11,-4.73,-5.12,5.12,5.51,5.22,0.41,0.39,0.40
53.56,-4.65,-5.02,-4.65,-5.02,5.02,5.43,5.08,0.37,0.37,0.37
54.10,-4.57,-4.92,-4.58,-4.93,4.93,5.36,4.95,0.36,0.35,0.35
54.64,-4.51,-4.83,-4.51,-4.84,4.84,5.29,4.82,0.33,0.32,0.32
55.18,-4.44,-4.74,-4.45,-4.75,4.75,5.22,4.69,0.31,0.30,0.30
55.74,-4.39,-4.66,-4.38,-4.66,4.66,5.15,4.56,0.27,0.28,0.27
56.29,-4.33,-4.58,-4.32,-4.58,4.58,5.08,4.44,0.25,0.26,0.25
56.86,-4.27,-4.50,-4.27,-4.50,4.50,5.01,4.33,0.23,0.23,0.23
57.42,-4.21,-4.41,-4.21,-4.42,4.42,4.94,4.22,0.21,0.21,0.20
58.00,-4.16,-4.34,-4.16,-4.34,4.34,4.87,4.11,0.18,0.18,0.18
58.58,-4.11,-4.27,-4.11,-4.27,4.27,4.81,4.00,0.16,0.16,0.16
59.16,-4.06,-4.20,-4.06,-4.20,4.20,4.75,3.90,0.14,0.13,0.14
59.76,-4.02,-4.14,-4.02,-4.13,4.13,4.68,3.81,0.10,0.11,0.12
60.35,-3.98,-4.07,-3.98,-4.06,4.06,4.62,3.71,0.08,0.08,0.09
60.96,-3.93,-3.99,-3.94,-3.99,3.99,4.56,3.63,0.06,0.05,0.06
61.57,-3.90,-3.92,-3.90,-3.92,3.92,4.50,3.54,0.02,0.03,0.02
62.18,-3.87,-3.86,-3.86,-3.86,3.86,4.44,3.46,-0.01,-0.00,-0.01
62.80,-3.84,-3.80,-3.83,-3.80,3.80,4.38,3.39,-0.04,-0.03,-0.04
63.43,-3.80,-3.73,-3.81,-3.74,3.74,4.32,3.32,-0.06,-0.06,-0.07
64.07,-3.78,-3.68,-3.78,-3.69,3.69,4.27,3.25,-0.09,-0.09,-0.10
64.71,-3.76,-3.64,-3.76,-3.64,3.64,4.21,3.19,-0.12,-0.12,-0.12
65.35,-3.76,-3.61,-3.74,-3.59,3.59,4.16,3.13,-0.17,-0.15,-0.15
66.01,-3.72,-3.54,-3.73,-3.55,3.55,4.11,3.07,-0.17,-0.18,-0.18
66.67,-3.72,-3.51,-3.72,-3.51,3.51,4.05,3.02,-0.21,-0.21,-0.21
67.33,-3.72,-3.48,-3.72,-3.48,3.48,4.00,2.97,-0.24,-0.24,-0.24
68.01,-3.72,-3.45,-3.72,-3.45,3.45,3.95,2.93,-0.27,-0.27,-0.27
68.69,-3.72,-3.42,-3.73,-3.43,3.43,3.90,2.89,-0.29,-0.30,-0.30
69.37,-3.73,-3.40,-3.74,-3.41,3.41,3.85,2.85,-0.32,-0.33,-0.33
70.07,-3.76,-3.40,-3.76,-3.40,3.40,3.81,2.82,-0.36,-0.36,-0.36
70.77,-3.78,-3.39,-3.79,-3.40,3.40,3.76,2.79,-0.38,-0.39,-0.39
71.48,-3.81,-3.39,-3.82,-3.40,3.40,3.71,2.76,-0.41,-0.43,-0.42
72.19,-3.84,-3.38,-3.86,-3.40,3.40,3.67,2.73,-0.44,-0.46,-0.46
72.91,-3.90,-3.41,-3.90,-3.41,3.41,3.62,2.71,-0.49,-0.49,-0.49
73.64,-3.94,-3.41,-3.95,-3.43,3.43,3.58,2.69,-0.51,-0.52,-0.53
74.38,-4.00,-3.44,-4.00,-3.45,3.45,3.54,2.67,-0.55,-0.56,-0.56
75.12,-4.05,-3.45,-4.06,-3.46,3.46,3.50,2.65,-0.59,-0.59,-0.60
75.87,-4.12,-3.49,-4.11,-3.49,3.49,3.46,2.64,-0.63,-0.62,-0.63
76.63,-4.17,-3.51,-4.17,-3.51,3.51,3.42,2.63,-0.66,-0.66,-0.66
77.40,-4.23,-3.54,-4.22,-3.53,3.53,3.38,2.62,-0.71,-0.69,-0.69
78.17,-4.28,-3.55,-4.27,-3.54,3.54,3.34,2.61,-0.74,-0.73,-0.73
78.95,-4.33,-3.57,-4.32,-3.56,3.56,3.31,2.60,-0.78,-0.76,-0.76
79.74,-4.38,-3.59,-4.36,-3.57,3.57,3.27,2.60,-0.81,-0.79,-0.79
80.54,-4.41,-3.58,-4.40,-3.57,3.57,3.23,2.59,-0.84,-0.83,-0.83
81.35,-4.45,-3.59,-4.44,-3.58,3.58,3.20,2.59,-0.87,-0.86,-0.86
82.16,-4.49,-3.59,-4.47,-3.58,3.58,3.17,2.59,-0.92,-0.90,-0.90
82.98,-4.50,-3.57,-4.50,-3.57,3.57,3.13,2.59,-0.93,-0.93,-0.93
83.81,-4.54,-3.57,-4.53,-3.56,3.56,3.10,2.59,-0.98,-0.97,-0.97
84.65,-4.54,-3.53,-4.56,-3.55,3.55,3.07,2.60,-0.99,-1.00,-1.01
85.50,-4.58,-3.54,-4.59,-3.54,3.54,3.04,2.60,-1.04,-1.04,-1.04
86.35,-4.60,-3.52,-4.61,-3.53,3.53,3.01,2.61,-1.07,-1.08,-1.08
87.22,-4.63,-3.51,-4.64,-3.52,3.52,2.99,2.62,-1.11,-1.12,-1.12
88.09,-4.66,-3.50,-4.67,-3.51,3.51,2.96,2.63,-1.15,-1.16,-1.16
88.97,-4.69,-3.49,-4.70,-3.50,3.50,2.93,2.64,-1.19,-1.20,-1.20
89.86,-4.72,-3.48,-4.73,-3.49,3.49,2.91,2.65,-1.23,-1.24,-1.24
90.76,-4.76,-3.47,-4.76,-3.48,3.48,2.88,2.66,-1.28,-1.29,-1.29
91.66,-4.80,-3.47,-4.80,-3.47,3.47,2.86,2.68,-1.33,-1.33,-1.33
92.58,-4.83,-3.45,-4.84,-3.46,3.46,2.84,2.69,-1.37,-1.37,-1.38
93.51,-4.87,-3.45,-4.88,-3.46,3.46,2.82,2.71,-1.41,-1.42,-1.42
94.44,-4.91,-3.45,-4.92,-3.45,3.45,2.80,2.73,-1.46,-1.47,-1.46
95.39,-4.95,-3.44,-4.96,-3.44,3.44,2.78,2.75,-1.51,-1.51,-1.51
96.34,-4.99,-3.43,-4.99,-3.43,3.43,2.76,2.77,-1.56,-1.56,-1.56
97.30,-5.04,-3.43,-5.03,-3.42,3.42,2.74,2.79,-1.62,-1.61,-1.61
98.28,-5.07,-3.41,-5.06,-3.41,3.41,2.72,2.81,-1.66,-1.65,-1.66
99.26,-5.10,-3.40,-5.10,-3.40,3.40,2.71,2.83,-1.70,-1.70,-1.70
100.25,-5.15,-3.40,-5.13,-3.38,3.38,2.69,2.85,-1.77,-1.75,-1.75
101.25,-5.16,-3.36,-5.15,-3.36,3.36,2.68,2.88,-1.80,-1.80,-1.80
102.27,-5.19,-3.34,-5.18,-3.33,3.33,2.66,2.90,-1.86,-1.84,-1.85
103.29,-5.20,-3.30,-5.20,-3.31,3.31,2.65,2.93,-1.89,-1.89,-1.90
104.32,-5.23,-3.29,-5.22,-3.28,3.28,2.64,2.95,-1.95,-1.94,-1.94
105.37,-5.23,-3.24,-5.24,-3.24,3.24,2.63,2.98,-1.99,-1.99,-1.99
106.42,-5.23,-3.19,-5.25,-3.21,3.21,2.62,3.00,-2.02,-2.04,-2.04
107.48,-5.28,-3.19,-5.26,-3.17,3.17,2.61,3.03,-2.11,-2.09,-2.09
108.56,-5.28,-3.14,-5.28,-3.14,3.14,2.60,3.05,-2.14,-2.14,-2.14
109.64,-5.28,-3.09,-5.29,-3.10,3.10,2.59,3.08,-2.18,-2.19,-2.19
110.74,-5.28,-3.04,-5.30,-3.06,3.06,2.59,3.10,-2.22,-2.24,-2.24
111.85,-5.32,-3.03,-5.32,-3.02,3.02,2.58,3.12,-2.30,-2.30,-2.29
112.97,-5.32,-2.97,-5.33,-2.98,2.98,2.58,3.14,-2.34,-2.35,-2.35
114.10,-5.35,-2.95,-5.35,-2.94,2.94,2.57,3.16,-2.41,-2.40,-2.40
115.24,-5.36,-2.90,-5.36,-2.91,2.91,2.57,3.18,-2.45,-2.45,-2.46
116.39,-5.37,-2.86,-5.38,-2.87,2.87,2.57,3.20,-2.50,-2.51,-2.51
117.55,-5.41,-2.84,-5.40,-2.84,2.84,2.57,3.21,-2.57,-2.56,-2.57
118.73,-5.41,-2.79,-5.42,-2.80,2.80,2.57,3.22,-2.61,-2.61,-2.62
119.92,-5.45,-2.78,-5.43,-2.77,2.77,2.57,3.24,-2.68,-2.67,-2.67
121.12,-5.45,-2.73,-5.46,-2.74,2.74,2.57,3.24,-2.71,-2.72,-2.72
122.33,-5.49,-2.72,-5.48,-2.71,2.71,2.57,3.25,-2.78,-2.77,-2.77
123.55,-5.50,-2.68,-5.50,-2.68,2.68,2.57,3.25,-2.82,-2.82,-2.82
124.79,-5.54,-2.67,-5.53,-2.65,2.65,2.58,3.26,-2.89,-2.87,-2.87
126.03,-5.56,-2.64,-5.56,-2.63,2.63,2.58,3.26,-2.93,-2.92,-2.92
127.29,-5.58,-2.61,-5.59,-2.61,2.61,2.59,3.25,-2.97,-2.98,-2.97
128.57,-5.62,-2.59,-5.62,-2.60,2.60,2.60,3.25,-3.02,-3.03,-3.03
129.85,-5.65,-2.57,-5.66,-2.59,2.59,2.61,3.24,-3.06,-3.08,-3.08
131.15,-5.70,-2.57,-5.71,-2.58,2.58,2.62,3.23,-3.12,-3.12,-3.13
132.46,-5.73,-2.55,-5.76,-2.58,2.58,2.62,3.22,-3.15,-3.17,-3.18
133.79,-5.79,-2.57,-5.81,-2.59,2.59,2.64,3.20,-3.20,-3.22,-3.22
135.12,-5.86,-2.59,-5.86,-2.60,2.60,2.65,3.19,-3.27,-3.27,-3.27
136.48,-5.93,-2.62,-5.92,-2.61,2.61,2.66,3.17,-3.32,-3.31,-3.31
137.84,-5.99,-2.63,-5.99,-2.63,2.63,2.67,3.15,-3.36,-3.36,-3.36
139.22,-6.05,-2.64,-6.06,-2.66,2.66,2.69,3.13,-3.39,-3.40,-3.41
140.61,-6.13,-2.68,-6.13,-2.69,2.69,2.70,3.11,-3.44,-3.44,-3.45
142.02,-6.20,-2.72,-6.20,-2.72,2.72,2.72,3.09,-3.48,-3.48,-3.48
143.44,-6.27,-2.75,-6.28,-2.76,2.76,2.73,3.07,-3.51,-3.52,-3.52
144.87,-6.35,-2.79,-6.35,-2.80,2.80,2.75,3.05,-3.56,-3.56,-3.56
146.32,-6.42,-2.82,-6.43,-2.83,2.83,2.77,3.03,-3.59,-3.60,-3.60
147.78,-6.50,-2.87,-6.51,-2.87,2.87,2.79,3.01,-3.63,-3.64,-3.63
149.26,-6.57,-2.90,-6.58,-2.90,2.90,2.81,2.99,-3.67,-3.68,-3.67
150.75,-6.66,-2.95,-6.65,-2.93,2.93,2.83,2.97,-3.73,-3.71,-3.71
152.26,-6.71,-2.96,-6.71,-2.96,2.96,2.85,2.95,-3.75,-3.75,-3.75
153.78,-6.79,-3.00,-6.78,-2.99,2.99,2.87,2.93,-3.81,-3.79,-3.79
155.32,-6.86,-3.03,-6.83,-3.01,3.01,2.89,2.92,-3.86,-3.83,-3.83
156.88,-6.90,-3.03,-6.89,-3.02,3.02,2.92,2.90,-3.88,-3.87,-3.87
158.44,-6.95,-3.04,-6.94,-3.03,3.03,2.94,2.89,-3.92,-3.91,-3.91
160.03,-6.99,-3.04,-6.98,-3.03,3.03,2.96,2.87,-3.96,-3.95,-3.95
161.63,-7.02,-3.03,-7.02,-3.03,3.03,2.99,2.86,-3.99,-3.99,-3.99
163.24,-7.05,-3.02,-7.05,-3.03,3.03,3.01,2.85,-4.02,-4.02,-4.03
164.88,-7.08,-3.02,-7.08,-3.02,3.02,3.04,2.85,-4.06,-4.06,-4.06
166.53,-7.10,-3.00,-7.11,-3.01,3.01,3.06,2.84,-4.09,-4.10,-4.10
168.19,-7.14,-3.00,-7.13,-2.99,2.99,3.09,2.84,-4.15,-4.14,-4.14
169.87,-7.14,-2.96,-7.15,-2.97,2.97,3.11,2.84,-4.17,-4.18,-4.18
171.57,-7.18,-2.96,-7.17,-2.95,2.95,3.14,2.84,-4.23,-4.22,-4.22
173.29,-7.18,-2.93,-7.18,-2.93,2.93,3.16,2.84,-4.25,-4.26,-4.25
175.02,-7.18,-2.89,-7.20,-2.91,2.91,3.19,2.84,-4.28,-4.29,-4.29
176.77,-7.23,-2.90,-7.21,-2.88,2.88,3.21,2.85,-4.35,-4.33,-4.33
178.54,-7.23,-2.86,-7.23,-2.86,2.86,3.24,2.86,-4.37,-4.37,-4.37
180.32,-7.23,-2.82,-7.24,-2.84,2.84,3.26,2.87,-4.39,-4.40,-4.41
182.13,-7.27,-2.83,-7.26,-2.82,2.82,3.29,2.88,-4.45,-4.44,-4.44
183.95,-7.27,-2.79,-7.27,-2.80,2.80,3.31,2.90,-4.47,-4.48,-4.48
185.79,-7.27,-2.76,-7.29,-2.78,2.78,3.33,2.92,-4.49,-4.51,-4.51
187.65,-7.31,-2.76,-7.31,-2.77,2.77,3.36,2.93,-4.54,-4.55,-4.55
189.52,-7.31,-2.73,-7.34,-2.76,2.76,3.38,2.96,-4.55,-4.58,-4.58
191.42,-7.36,-2.75,-7.36,-2.75,2.75,3.40,2.98,-4.61,-4.61,-4.61
193.33,-7.39,-2.75,-7.39,-2.75,2.75,3.42,3.00,-4.65,-4.64,-4.64
195.27,-7.40,-2.73,-7.41,-2.74,2.74,3.44,3.03,-4.66,-4.67,-4.67
197.22,-7.44,-2.74,-7.44,-2.75,2.75,3.45,3.05,-4.69,-4.70,-4.70
199.19,-7.48,-2.75,-7.48,-2.75,2.75,3.47,3.08,-4.73,-4.72,-4.73
201.18,-7.51,-2.76,-7.51,-2.76,2.76,3.49,3.11,-4.75,-4.75,-4.75
203.19,-7.54,-2.77,-7.54,-2.77,2.77,3.50,3.14,-4.77,-4.77,-4.77
205.23,-7.57,-2.78,-7.57,-2.79,2.79,3.51,3.17,-4.79,-4.79,-4.79
207.28,-7.60,-2.80,-7.60,-2.80,2.80,3.52,3.20,-4.80,-4.80,-4.80
209.35,-7.63,-2.81,-7.63,-2.81,2.81,3.53,3.23,-4.82,-4.82,-4.82
211.44,-7.66,-2.82,-7.66,-2.82,2.82,3.53,3.27,-4.84,-4.83,-4.84
213.56,-7.70,-2.85,-7.68,-2.83,2.83,3.54,3.30,-4.87,-4.85,-4.85
215.69,-7.70,-2.85,-7.70,-2.84,2.84,3.54,3.32,-4.86,-4.86,-4.85
217.85,-7.75,-2.89,-7.72,-2.85,2.85,3.54,3.35,-4.90,-4.86,-4.86
220.03,-7.75,-2.88,-7.73,-2.86,2.86,3.53,3.38,-4.89,-4.87,-4.87
222.23,-7.75,-2.87,-7.75,-2.88,2.88,3.52,3.40,-4.87,-4.87,-4.88
224.45,-7.75,-2.87,-7.77,-2.89,2.89,3.52,3.43,-4.86,-4.88,-4.88
226.70,-7.78,-2.90,-7.78,-2.91,2.91,3.50,3.44,-4.87,-4.88,-4.88
228.96,-7.79,-2.91,-7.80,-2.93,2.93,3.49,3.46,-4.86,-4.88,-4.88
231.25,-7.79,-2.92,-7.82,-2.95,2.95,3.47,3.47,-4.84,-4.88,-4.87
233.57,-7.83,-2.96,-7.84,-2.97,2.97,3.45,3.48,-4.86,-4.87,-4.87
235.90,-7.83,-2.96,-7.86,-3.00,3.00,3.43,3.49,-4.83,-4.87,-4.87
238.26,-7.88,-3.02,-7.89,-3.03,3.03,3.40,3.49,-4.85,-4.86,-4.86
240.64,-7.89,-3.04,-7.91,-3.06,3.06,3.37,3.48,-4.83,-4.85,-4.85
243.05,-7.92,-3.08,-7.93,-3.09,3.09,3.34,3.47,-4.83,-4.84,-4.84
245.48,-7.96,-3.13,-7.95,-3.12,3.12,3.31,3.46,-4.84,-4.83,-4.83
247.93,-7.98,-3.16,-7.97,-3.15,3.15,3.27,3.43,-4.83,-4.82,-4.82
250.41,-8.01,-3.20,-7.98,-3.18,3.18,3.23,3.41,-4.83,-4.80,-4.81
252.92,-8.01,-3.22,-7.99,-3.20,3.20,3.18,3.38,-4.81,-4.79,-4.79
255.45,-8.01,-3.24,-8.00,-3.22,3.22,3.14,3.34,-4.79,-4.77,-4.77
258.00,-8.01,-3.25,-7.99,-3.24,3.24,3.09,3.29,-4.77,-4.76,-4.76
260.58,-8.01,-3.27,-7.99,-3.25,3.25,3.03,3.25,-4.76,-4.74,-4.74
263.19,-7.96,-3.24,-7.97,-3.25,3.25,2.98,3.19,-4.71,-4.72,-4.72
265.82,-7.96,-3.26,-7.95,-3.25,3.25,2.92,3.13,-4.71,-4.70,-4.70
268.48,-7.92,-3.24,-7.92,-3.24,3.24,2.86,3.07,-4.68,-4.68,-4.68
271.16,-7.91,-3.25,-7.89,-3.23,3.23,2.80,3.00,-4.68,-4.66,-4.66
273.87,-7.86,-3.22,-7.86,-3.22,3.22,2.74,2.93,-4.65,-4.64,-4.64
276.61,-7.83,-3.21,-7.82,-3.20,3.20,2.67,2.85,-4.63,-4.62,-4.62
279.38,-7.80,-3.20,-7.79,-3.19,3.19,2.60,2.77,-4.61,-4.60,-4.60
282.17,-7.75,-3.17,-7.77,-3.19,3.19,2.53,2.69,-4.56,-4.58,-4.58
284.99,-7.72,-3.16,-7.75,-3.19,3.19,2.46,2.60,-4.53,-4.56,-4.56
287.84,-7.67,-3.13,-7.75,-3.21,3.21,2.38,2.51,-4.46,-4.54,-4.54
290.72,-7.66,-3.14,-7.75,-3.23,3.23,2.31,2.42,-4.43,-4.52,-4.52
293.63,-7.62,-3.12,-7.75,-3.25,3.25,2.23,2.33,-4.37,-4.50,-4.50
296.57,-7.62,-3.14,-7.74,-3.27,3.27,2.15,2.23,-4.35,-4.48,-4.48
299.53,-7.62,-3.16,-7.72,-3.27,3.27,2.07,2.14,-4.35,-4.45,-4.46
302.53,-7.62,-3.18,-7.68,-3.25,3.25,1.99,2.04,-4.37,-4.43,-4.44
305.55,-7.66,-3.25,-7.62,-3.21,3.21,1.91,1.94,-4.45,-4.41,-4.41
308.61,-7.63,-3.24,-7.51,-3.13,3.13,1.83,1.84,-4.50,-4.38,-4.39
311.69,-7.57,-3.21,-7.37,-3.01,3.01,1.74,1.74,-4.56,-4.36,-4.36
314.81,-7.46,-3.13,-7.19,-2.85,2.85,1.66,1.64,-4.61,-4.34,-4.33
317.96,-7.23,-2.92,-6.97,-2.66,2.66,1.57,1.54,-4.58,-4.32,-4.31
321.14,-6.97,-2.68,-6.72,-2.43,2.43,1.49,1.44,-4.54,-4.29,-4.29
324.35,-6.61,-2.34,-6.44,-2.17,2.17,1.40,1.34,-4.44,-4.27,-4.27
327.59,-6.21,-1.96,-6.15,-1.90,1.90,1.32,1.24,-4.31,-4.25,-4.25
330.87,-5.79,-1.56,-5.83,-1.60,1.60,1.23,1.14,-4.19,-4.23,-4.23
334.18,-5.38,-1.17,-5.51,-1.31,1.31,1.15,1.04,-4.07,-4.21,-4.21
337.52,-4.98,-0.79,-5.19,-1.01,1.01,1.06,0.94,-3.97,-4.19,-4.19
340.90,-4.64,-0.47,-4.89,-0.72,0.72,0.98,0.84,-3.92,-4.17,-4.17
344.30,-4.38,-0.23,-4.60,-0.45,0.45,0.89,0.74,-3.93,-4.15,-4.15
347.75,-4.17,-0.04,-4.34,-0.21,0.21,0.80,0.64,-3.96,-4.13,-4.13
351.23,-4.01,0.10,-4.11,0.00,-0.00,0.72,0.54,-4.01,-4.11,-4.11
354.74,-3.89,0.20,-3.91,0.18,-0.18,0.64,0.44,-4.08,-4.09,-4.09
358.28,-3.76,0.32,-3.74,0.34,-0.34,0.55,0.35,-4.10,-4.08,-4.08
361.87,-3.66,0.40,-3.60,0.46,-0.46,0.47,0.25,-4.12,-4.06,-4.06
365.49,-3.57,0.47,-3.49,0.56,-0.56,0.38,0.15,-4.13,-4.04,-4.04
369.14,-3.47,0.56,-3.39,0.64,-0.64,0.30,0.05,-4.11,-4.03,-4.03
372.83,-3.37,0.64,-3.30,0.71,-0.71,0.22,-0.04,-4.08,-4.01,-4.01
376.56,-3.29,0.71,-3.23,0.77,-0.77,0.14,-0.14,-4.06,-4.00,-4.00
380.33,-3.19,0.79,-3.17,0.81,-0.81,0.06,-0.23,-4.01,-3.98,-3.98
384.13,-3.10,0.87,-3.11,0.86,-0.86,-0.02,-0.33,-3.96,-3.97,-3.97
387.97,-3.02,0.94,-3.06,0.89,-0.89,-0.10,-0.43,-3.91,-3.96,-3.96
391.85,-2.96,0.99,-3.02,0.92,-0.92,-0.18,-0.52,-3.88,-3.94,-3.95
395.77,-2.94,0.99,-2.99,0.94,-0.94,-0.25,-0.61,-3.88,-3.93,-3.93
399.73,-2.89,1.03,-2.97,0.95,-0.95,-0.33,-0.71,-3.84,-3.92,-3.92
403.72,-2.89,1.02,-2.95,0.96,-0.96,-0.41,-0.80,-3.85,-3.91,-3.91
407.76,-2.91,0.99,-2.94,0.96,-0.96,-0.48,-0.89,-3.87,-3.90,-3.90
411.84,-2.94,0.95,-2.93,0.96,-0.96,-0.55,-0.98,-3.90,-3.89,-3.89
415.96,-2.94,0.94,-2.92,0.96,-0.96,-0.63,-1.07,-3.90,-3.88,-3.88
420.12,-2.98,0.89,-2.91,0.96,-0.96,-0.70,-1.16,-3.94,-3.87,-3.87
424.32,-2.96,0.90,-2.90,0.96,-0.96,-0.77,-1.25,-3.92,-3.86,-3.86
428.56,-2.94,0.91,-2.87,0.97,-0.97,-0.84,-1.33,-3.91,-3.85,-3.85
432.85,-2.89,0.95,-2.84,0.99,-0.99,-0.91,-1.42,-3.88,-3.84,-3.84
437.18,-2.84,0.99,-2.80,1.02,-1.02,-0.97,-1.50,-3.86,-3.82,-3.83
