frequency,raw,error,smoothed,error_smoothed,equalization,parametric_eq,fixed_band_eq,equalized_raw,equalized_smoothed,target
20.00,2.90,-0.31,2.89,-0.33,0.33,-0.74,-0.74,3.23,3.23,3.20
20.20,2.98,-0.27,2.97,-0.29,0.29,-0.75,-0.76,3.26,3.26,3.24
20.40,3.05,-0.24,3.05,-0.24,0.24,-0.76,-0.78,3.29,3.29,3.29
20.61,3.12,-0.19,3.13,-0.19,0.19,-0.78,-0.81,3.31,3.32,3.31
20.81,3.21,-0.15,3.21,-0.14,0.14,-0.79,-0.83,3.34,3.35,3.36
21.02,3.29,-0.11,3.29,-0.09,0.09,-0.81,-0.86,3.37,3.37,3.39
21.23,3.36,-0.06,3.36,-0.03,0.03,-0.82,-0.88,3.39,3.40,3.41
21.44,3.44,0.00,3.44,0.02,-0.02,-0.84,-0.91,3.42,3.42,3.43
21.66,3.52,0.06,3.52,0.08,-0.08,-0.85,-0.94,3.44,3.44,3.45
21.87,3.60,0.13,3.59,0.13,-0.13,-0.87,-0.96,3.47,3.46,3.47
22.09,3.67,0.18,3.67,0.19,-0.19,-0.88,-0.99,3.48,3.48,3.48
22.31,3.74,0.24,3.74,0.25,-0.25,-0.90,-1.02,3.49,3.49,3.49
22.54,3.81,0.31,3.82,0.31,-0.31,-0.91,-1.05,3.51,3.51,3.50
22.76,3.89,0.37,3.89,0.37,-0.37,-0.93,-1.09,3.51,3.52,3.51
22.99,3.97,0.45,3.96,0.44,-0.44,-0.95,-1.12,3.53,3.53,3.51
23.22,4.04,0.51,4.04,0.50,-0.50,-0.96,-1.15,3.53,3.53,3.52
23.45,4.11,0.57,4.11,0.57,-0.57,-0.98,-1.19,3.54,3.54,3.53
23.69,4.18,0.63,4.18,0.63,-0.63,-1.00,-1.22,3.55,3.55,3.54
23.92,4.26,0.70,4.25,0.69,-0.69,-1.01,-1.26,3.57,3.56,3.55
24.16,4.33,0.75,4.32,0.75,-0.75,-1.03,-1.29,3.58,3.57,3.57
24.40,4.39,0.79,4.39,0.81,-0.81,-1.05,-1.33,3.58,3.58,3.59
24.65,4.46,0.87,4.46,0.87,-0.87,-1.07,-1.37,3.58,3.59,3.58
24.89,4.53,0.93,4.53,0.93,-0.93,-1.08,-1.40,3.60,3.60,3.59
25.14,4.60,0.99,4.59,0.99,-0.99,-1.10,-1.44,3.61,3.61,3.60
25.39,4.66,1.04,4.66,1.04,-1.04,-1.12,-1.48,3.61,3.62,3.62
25.65,4.73,1.09,4.73,1.10,-1.10,-1.14,-1.52,3.63,3.63,3.63
25.91,4.79,1.16,4.79,1.15,-1.15,-1.16,-1.56,3.64,3.64,3.63
26.16,4.86,1.21,4.86,1.21,-1.21,-1.18,-1.59,3.65,3.65,3.64
26.43,4.92,1.26,4.92,1.26,-1.26,-1.19,-1.63,3.65,3.66,3.65
26.69,4.99,1.32,4.98,1.32,-1.32,-1.21,-1.67,3.67,3.67,3.66
26.96,5.05,1.36,5.05,1.37,-1.37,-1.23,-1.71,3.67,3.68,3.68
27.23,5.11,1.41,5.11,1.42,-1.42,-1.25,-1.75,3.68,3.68,3.69
27.50,5.17,1.47,5.17,1.47,-1.47,-1.27,-1.78,3.69,3.69,3.69
27.77,5.23,1.53,5.23,1.53,-1.53,-1.29,-1.82,3.70,3.70,3.70
28.05,5.29,1.57,5.29,1.57,-1.57,-1.31,-1.85,3.71,3.71,3.71
28.33,5.34,1.62,5.34,1.62,-1.62,-1.33,-1.88,3.72,3.72,3.71
28.62,5.40,1.67,5.39,1.67,-1.67,-1.35,-1.91,3.73,3.73,3.72
28.90,5.45,1.71,5.44,1.71,-1.71,-1.37,-1.94,3.74,3.74,3.73
29.19,5.50,1.76,5.49,1.75,-1.75,-1.39,-1.97,3.75,3.74,3.73
29.48,5.55,1.78,5.54,1.79,-1.79,-1.41,-2.00,3.76,3.75,3.76
29.78,5.59,1.83,5.58,1.83,-1.83,-1.43,-2.02,3.76,3.76,3.75
30.08,5.64,1.87,5.62,1.86,-1.86,-1.45,-2.04,3.78,3.76,3.76
30.38,5.67,1.90,5.66,1.89,-1.89,-1.47,-2.06,3.77,3.77,3.76
30.68,5.70,1.91,5.70,1.92,-1.92,-1.49,-2.07,3.78,3.78,3.78
30.99,5.73,1.94,5.73,1.95,-1.95,-1.51,-2.09,3.78,3.78,3.78
31.30,5.76,1.97,5.76,1.97,-1.97,-1.53,-2.10,3.78,3.79,3.78
31.61,5.79,1.99,5.79,1.99,-1.99,-1.55,-2.11,3.79,3.80,3.79
31.93,5.82,2.01,5.82,2.02,-2.02,-1.57,-2.11,3.80,3.81,3.80
32.24,5.85,2.04,5.85,2.03,-2.03,-1.59,-2.11,3.81,3.81,3.81
32.57,5.88,2.05,5.87,2.05,-2.05,-1.61,-2.12,3.82,3.82,3.82
32.89,5.90,2.07,5.90,2.07,-2.07,-1.63,-2.11,3.83,3.83,3.82
33.22,5.93,2.09,5.92,2.08,-2.08,-1.65,-2.11,3.84,3.84,3.83
33.55,5.95,2.10,5.94,2.10,-2.10,-1.67,-2.10,3.85,3.84,3.84
33.89,5.97,2.11,5.97,2.12,-2.12,-1.69,-2.09,3.85,3.85,3.85
34.23,5.99,2.13,5.99,2.13,-2.13,-1.71,-2.08,3.85,3.85,3.85
34.57,6.01,2.14,6.01,2.15,-2.15,-1.73,-2.07,3.86,3.86,3.86
34.92,6.03,2.16,6.03,2.16,-2.16,-1.75,-2.06,3.86,3.87,3.86
35.27,6.04,2.16,6.05,2.17,-2.17,-1.77,-2.04,3.86,3.87,3.87
35.62,6.06,2.18,6.06,2.19,-2.19,-1.79,-2.03,3.87,3.88,3.87
35.97,6.08,2.20,6.08,2.20,-2.20,-1.81,-2.01,3.87,3.88,3.87
36.33,6.10,2.21,6.10,2.22,-2.22,-1.82,-2.00,3.88,3.88,3.88
36.70,6.12,2.24,6.11,2.23,-2.23,-1.84,-1.98,3.89,3.88,3.87
37.06,6.13,2.24,6.12,2.24,-2.24,-1.86,-1.96,3.89,3.88,3.88
37.43,6.14,2.25,6.13,2.25,-2.25,-1.88,-1.94,3.89,3.88,3.88
37.81,6.15,2.26,6.14,2.26,-2.26,-1.90,-1.92,3.89,3.88,3.88
38.19,6.15,2.26,6.15,2.27,-2.27,-1.91,-1.91,3.88,3.88,3.88
38.57,6.16,2.28,6.15,2.28,-2.28,-1.93,-1.89,3.88,3.88,3.87
38.95,6.16,2.28,6.15,2.28,-2.28,-1.95,-1.87,3.87,3.87,3.87
39.34,6.16,2.29,6.16,2.29,-2.29,-1.96,-1.86,3.87,3.87,3.86
39.74,6.16,2.29,6.16,2.29,-2.29,-1.98,-1.84,3.87,3.87,3.86
40.14,6.16,2.29,6.15,2.29,-2.29,-1.99,-1.83,3.87,3.87,3.86
40.54,6.15,2.28,6.15,2.29,-2.29,-2.01,-1.81,3.86,3.86,3.86
40.94,6.14,2.28,6.15,2.28,-2.28,-2.02,-1.80,3.85,3.86,3.85
41.35,6.14,2.28,6.14,2.28,-2.28,-2.04,-1.79,3.85,3.86,3.85
41.76,6.13,2.27,6.13,2.28,-2.28,-2.05,-1.78,3.85,3.85,3.85
42.18,6.13,2.27,6.12,2.27,-2.27,-2.06,-1.77,3.86,3.85,3.85
42.60,6.12,2.26,6.11,2.26,-2.26,-2.08,-1.76,3.85,3.85,3.85
43.03,6.11,2.25,6.10,2.25,-2.25,-2.09,-1.76,3.85,3.85,3.85
43.46,6.10,2.24,6.09,2.24,-2.24,-2.10,-1.75,3.85,3.84,3.85
43.90,6.08,2.24,6.07,2.23,-2.23,-2.11,-1.75,3.85,3.84,3.83
44.33,6.06,2.22,6.06,2.22,-2.22,-2.12,-1.74,3.84,3.84,3.83
44.78,6.04,2.21,6.04,2.20,-2.20,-2.13,-1.74,3.83,3.84,3.82
45.23,6.02,2.19,6.02,2.19,-2.19,-2.14,-1.74,3.83,3.83,3.82
45.68,6.00,2.17,6.00,2.17,-2.17,-2.15,-1.74,3.82,3.83,3.82
46.13,5.97,2.15,5.98,2.16,-2.16,-2.16,-1.74,3.81,3.82,3.81
46.60,5.96,2.13,5.96,2.14,-2.14,-2.17,-1.75,3.81,3.82,3.82
47.06,5.94,2.12,5.94,2.13,-2.13,-2.17,-1.75,3.81,3.81,3.81
47.53,5.92,2.11,5.91,2.11,-2.11,-2.18,-1.76,3.81,3.80,3.80
48.01,5.90,2.08,5.89,2.09,-2.09,-2.19,-1.77,3.80,3.79,3.81
48.49,5.87,2.07,5.86,2.07,-2.07,-2.19,-1.78,3.79,3.79,3.79
48.97,5.84,2.06,5.83,2.05,-2.05,-2.20,-1.79,3.78,3.78,3.77
49.46,5.81,2.04,5.80,2.04,-2.04,-2.20,-1.80,3.77,3.77,3.76
49.96,5.78,2.03,5.77,2.02,-2.02,-2.21,-1.81,3.76,3.75,3.74
50.46,5.75,2.00,5.74,2.00,-2.00,-2.21,-1.82,3.75,3.74,3.74
50.96,5.71,1.98,5.71,1.98,-1.98,-2.21,-1.83,3.72,3.72,3.72
51.47,5.68,1.98,5.67,1.97,-1.97,-2.21,-1.85,3.71,3.71,3.69
51.99,5.64,1.95,5.64,1.95,-1.95,-2.22,-1.86,3.68,3.69,3.68
52.51,5.60,1.92,5.61,1.94,-1.94,-2.22,-1.88,3.66,3.67,3.67
53.03,5.57,1.91,5.58,1.92,-1.92,-2.22,-1.89,3.64,3.65,3.65
53.56,5.54,1.89,5.54,1.91,-1.91,-2.22,-1.91,3.63,3.63,3.64
54.10,5.51,1.89,5.51,1.90,-1.90,-2.22,-1.93,3.61,3.62,3.61
54.64,5.48,1.87,5.48,1.88,-1.88,-2.22,-1.94,3.59,3.60,3.60
55.18,5.45,1.87,5.45,1.87,-1.87,-2.22,-1.96,3.58,3.58,3.57
55.74,5.43,1.88,5.41,1.85,-1.85,-2.22,-1.97,3.57,3.56,3.54
56.29,5.40,1.85,5.38,1.84,-1.84,-2.21,-1.99,3.55,3.54,3.54
56.86,5.37,1.85,5.35,1.83,-1.83,-2.21,-2.01,3.53,3.52,3.51
57.42,5.33,1.84,5.32,1.82,-1.82,-2.21,-2.02,3.50,3.50,3.48
58.00,5.29,1.82,5.29,1.82,-1.82,-2.21,-2.03,3.47,3.47,3.46
58.58,5.26,1.81,5.26,1.81,-1.81,-2.20,-2.05,3.45,3.45,3.44
59.16,5.22,1.79,5.22,1.81,-1.81,-2.20,-2.06,3.41,3.42,3.42
59.76,5.18,1.77,5.19,1.80,-1.80,-2.20,-2.07,3.37,3.39,3.40
60.35,5.15,1.77,5.16,1.80,-1.80,-2.19,-2.08,3.35,3.36,3.37
60.96,5.12,1.77,5.13,1.80,-1.80,-2.19,-2.09,3.32,3.33,3.34
61.57,5.10,1.80,5.10,1.80,-1.80,-2.18,-2.10,3.29,3.30,3.30
62.18,5.08,1.82,5.07,1.80,-1.80,-2.18,-2.11,3.27,3.26,3.25
62.80,5.06,1.82,5.04,1.81,-1.81,-2.17,-2.12,3.25,3.23,3.23
63.43,5.02,1.83,5.01,1.82,-1.82,-2.17,-2.12,3.20,3.19,3.18
64.07,4.99,1.84,4.98,1.82,-1.82,-2.16,-2.13,3.16,3.16,3.14
64.71,4.95,1.83,4.95,1.83,-1.83,-2.16,-2.13,3.11,3.12,3.11
65.35,4.92,1.84,4.92,1.84,-1.84,-2.15,-2.13,3.08,3.08,3.07
66.01,4.89,1.85,4.88,1.85,-1.85,-2.14,-2.13,3.04,3.04,3.03
66.67,4.86,1.85,4.85,1.85,-1.85,-2.14,-2.13,3.00,3.00,3.00
67.33,4.83,1.86,4.82,1.86,-1.86,-2.13,-2.13,2.97,2.96,2.96
68.01,4.80,1.87,4.78,1.86,-1.86,-2.13,-2.13,2.93,2.92,2.92
68.69,4.76,1.87,4.75,1.87,-1.87,-2.12,-2.13,2.89,2.88,2.88
69.37,4.72,1.87,4.72,1.87,-1.87,-2.12,-2.13,2.84,2.84,2.84
70.07,4.69,1.88,4.69,1.88,-1.88,-2.11,-2.12,2.80,2.80,2.80
70.77,4.65,1.88,4.66,1.89,-1.89,-2.11,-2.12,2.75,2.77,2.76
71.48,4.62,1.88,4.63,1.90,-1.90,-2.10,-2.12,2.71,2.73,2.73
72.19,4.60,1.91,4.61,1.91,-1.91,-2.10,-2.12,2.68,2.69,2.68
72.91,4.58,1.92,4.58,1.93,-1.93,-2.09,-2.11,2.65,2.65,2.65
73.64,4.57,1.95,4.56,1.94,-1.94,-2.09,-2.11,2.62,2.62,2.61
74.38,4.55,1.96,4.54,1.96,-1.96,-2.08,-2.11,2.59,2.58,2.58
75.12,4.54,1.99,4.53,1.98,-1.98,-2.08,-2.11,2.56,2.55,2.54
75.87,4.52,2.00,4.52,2.00,-2.00,-2.07,-2.11,2.52,2.52,2.51
76.63,4.51,2.02,4.51,2.03,-2.03,-2.07,-2.11,2.48,2.49,2.48
77.40,4.50,2.04,4.51,2.05,-2.05,-2.07,-2.12,2.44,2.46,2.45
78.17,4.49,2.06,4.51,2.08,-2.08,-2.06,-2.12,2.41,2.43,2.42
78.95,4.49,2.09,4.51,2.11,-2.11,-2.06,-2.12,2.38,2.40,2.39
79.74,4.50,2.12,4.51,2.14,-2.14,-2.06,-2.13,2.36,2.37,2.37
80.54,4.51,2.15,4.51,2.16,-2.16,-2.06,-2.14,2.34,2.35,2.35
81.35,4.52,2.19,4.51,2.19,-2.19,-2.06,-2.15,2.33,2.32,2.32
82.16,4.53,2.23,4.51,2.21,-2.21,-2.06,-2.16,2.32,2.30,2.29
82.98,4.53,2.24,4.51,2.23,-2.23,-2.06,-2.17,2.30,2.28,2.28
83.81,4.52,2.26,4.50,2.24,-2.24,-2.06,-2.18,2.27,2.26,2.25
84.65,4.51,2.28,4.49,2.26,-2.26,-2.06,-2.20,2.25,2.23,2.22
85.50,4.50,2.28,4.48,2.27,-2.27,-2.06,-2.21,2.23,2.21,2.21
86.35,4.48,2.28,4.46,2.27,-2.27,-2.06,-2.23,2.21,2.19,2.19
87.22,4.45,2.27,4.44,2.27,-2.27,-2.06,-2.25,2.18,2.18,2.17
88.09,4.43,2.27,4.42,2.26,-2.26,-2.07,-2.27,2.16,2.16,2.15
88.97,4.40,2.26,4.39,2.25,-2.25,-2.07,-2.30,2.14,2.14,2.13
89.86,4.37,2.24,4.36,2.24,-2.24,-2.07,-2.32,2.12,2.12,2.12
90.76,4.34,2.24,4.33,2.23,-2.23,-2.08,-2.35,2.10,2.10,2.09
91.66,4.30,2.22,4.30,2.22,-2.22,-2.08,-2.38,2.08,2.08,2.07
92.58,4.27,2.21,4.27,2.21,-2.21,-2.09,-2.41,2.05,2.06,2.05
93.51,4.24,2.19,4.25,2.21,-2.21,-2.10,-2.44,2.03,2.04,2.04
94.44,4.22,2.19,4.23,2.21,-2.21,-2.11,-2.48,2.01,2.02,2.02
95.39,4.20,2.19,4.21,2.21,-2.21,-2.12,-2.51,1.98,2.00,2.00
96.34,4.18,2.20,4.19,2.22,-2.22,-2.13,-2.55,1.95,1.97,1.97
97.30,4.17,2.22,4.18,2.23,-2.23,-2.14,-2.59,1.93,1.95,1.94
98.28,4.16,2.24,4.17,2.25,-2.25,-2.15,-2.62,1.91,1.92,1.91
99.26,4.16,2.26,4.17,2.27,-2.27,-2.16,-2.67,1.88,1.89,1.89
100.25,4.17,2.30,4.17,2.30,-2.30,-2.17,-2.71,1.86,1.86,1.86
101.25,4.18,2.34,4.17,2.33,-2.33,-2.19,-2.75,1.84,1.83,1.83
102.27,4.19,2.39,4.17,2.37,-2.37,-2.20,-2.79,1.81,1.80,1.79
103.29,4.19,2.42,4.18,2.41,-2.41,-2.22,-2.84,1.77,1.77,1.76
104.32,4.19,2.45,4.19,2.46,-2.46,-2.24,-2.88,1.73,1.73,1.73
105.37,4.19,2.49,4.19,2.50,-2.50,-2.26,-2.93,1.68,1.69,1.69
106.42,4.19,2.54,4.20,2.55,-2.55,-2.27,-2.97,1.64,1.65,1.64
107.48,4.19,2.57,4.20,2.60,-2.60,-2.30,-3.02,1.59,1.60,1.61
108.56,4.21,2.65,4.20,2.64,-2.64,-2.32,-3.06,1.56,1.55,1.55
109.64,4.21,2.70,4.19,2.69,-2.69,-2.34,-3.10,1.52,1.50,1.50
110.74,4.20,2.74,4.18,2.73,-2.73,-2.36,-3.15,1.47,1.45,1.45
111.85,4.19,2.78,4.17,2.77,-2.77,-2.39,-3.19,1.41,1.39,1.40
112.97,4.17,2.83,4.15,2.81,-2.81,-2.41,-3.23,1.36,1.34,1.33
114.10,4.14,2.85,4.13,2.85,-2.85,-2.44,-3.27,1.29,1.28,1.28
115.24,4.11,2.88,4.10,2.88,-2.88,-2.47,-3.30,1.22,1.22,1.22
116.39,4.09,2.93,4.08,2.91,-2.91,-2.50,-3.34,1.17,1.16,1.15
117.55,4.06,2.96,4.05,2.94,-2.94,-2.53,-3.37,1.11,1.10,1.09
118.73,4.02,2.98,4.02,2.97,-2.97,-2.56,-3.40,1.05,1.05,1.03
119.92,3.98,2.99,3.98,3.00,-3.00,-2.60,-3.42,0.98,0.99,0.98
121.12,3.95,3.02,3.95,3.02,-3.02,-2.63,-3.45,0.92,0.93,0.92
122.33,3.93,3.05,3.93,3.05,-3.05,-2.67,-3.47,0.87,0.88,0.87
123.55,3.90,3.07,3.91,3.08,-3.08,-2.71,-3.48,0.81,0.82,0.82
124.79,3.87,3.09,3.89,3.12,-3.12,-2.75,-3.50,0.75,0.77,0.77
126.03,3.85,3.12,3.87,3.15,-3.15,-2.79,-3.51,0.69,0.72,0.72
127.29,3.84,3.16,3.87,3.20,-3.20,-2.83,-3.52,0.64,0.67,0.67
128.57,3.84,3.22,3.86,3.24,-3.24,-2.87,-3.52,0.60,0.62,0.61
129.85,3.85,3.27,3.86,3.28,-3.28,-2.91,-3.52,0.56,0.58,0.57
131.15,3.85,3.32,3.86,3.33,-3.33,-2.96,-3.52,0.52,0.53,0.52
132.46,3.86,3.37,3.86,3.37,-3.37,-3.01,-3.51,0.49,0.49,0.48
133.79,3.88,3.43,3.86,3.42,-3.42,-3.05,-3.51,0.46,0.44,0.44
135.12,3.89,3.48,3.86,3.45,-3.45,-3.10,-3.50,0.43,0.40,0.40
136.48,3.88,3.51,3.85,3.49,-3.49,-3.15,-3.49,0.39,0.36,0.36
137.84,3.87,3.54,3.85,3.52,-3.52,-3.20,-3.47,0.34,0.32,0.32
139.22,3.86,3.58,3.84,3.55,-3.55,-3.26,-3.46,0.31,0.28,0.27
140.61,3.85,3.61,3.82,3.57,-3.57,-3.31,-3.44,0.27,0.25,0.23
142.02,3.81,3.59,3.80,3.59,-3.59,-3.37,-3.43,0.22,0.21,0.21
143.44,3.79,3.61,3.77,3.60,-3.60,-3.42,-3.41,0.19,0.17,0.17
144.87,3.75,3.61,3.74,3.61,-3.61,-3.48,-3.39,0.14,0.13,0.13
146.32,3.72,3.62,3.72,3.62,-3.62,-3.53,-3.37,0.10,0.10,0.09
147.78,3.69,3.62,3.69,3.63,-3.63,-3.59,-3.35,0.06,0.06,0.06
149.26,3.65,3.61,3.66,3.64,-3.64,-3.65,-3.34,0.00,0.02,0.03
150.75,3.62,3.64,3.63,3.66,-3.66,-3.71,-3.32,-0.04,-0.02,-0.03
152.26,3.59,3.65,3.61,3.68,-3.68,-3.77,-3.30,-0.09,-0.06,-0.07
153.78,3.56,3.65,3.59,3.70,-3.70,-3.82,-3.29,-0.14,-0.10,-0.10
155.32,3.55,3.70,3.57,3.72,-3.72,-3.88,-3.28,-0.17,-0.15,-0.16
156.88,3.54,3.72,3.56,3.75,-3.75,-3.94,-3.26,-0.21,-0.19,-0.19
158.44,3.54,3.77,3.54,3.78,-3.78,-4.00,-3.25,-0.24,-0.24,-0.24
160.03,3.54,3.82,3.53,3.81,-3.81,-4.06,-3.24,-0.27,-0.28,-0.29
161.63,3.54,3.87,3.51,3.84,-3.84,-4.11,-3.24,-0.30,-0.33,-0.34
163.24,3.53,3.90,3.49,3.87,-3.87,-4.17,-3.23,-0.34,-0.37,-0.38
164.88,3.51,3.92,3.48,3.90,-3.90,-4.22,-3.23,-0.39,-0.42,-0.42
166.53,3.49,3.95,3.46,3.93,-3.93,-4.27,-3.23,-0.44,-0.47,-0.47
168.19,3.46,3.97,3.44,3.95,-3.95,-4.32,-3.23,-0.50,-0.52,-0.52
169.87,3.42,3.98,3.42,3.98,-3.98,-4.37,-3.24,-0.57,-0.56,-0.57
171.57,3.39,3.99,3.39,4.01,-4.01,-4.41,-3.25,-0.62,-0.62,-0.61
173.29,3.36,4.02,3.36,4.03,-4.03,-4.46,-3.25,-0.68,-0.67,-0.67
175.02,3.32,4.03,3.34,4.06,-4.06,-4.50,-3.27,-0.74,-0.72,-0.72
176.77,3.29,4.06,3.31,4.08,-4.08,-4.53,-3.28,-0.80,-0.77,-0.78
178.54,3.27,4.09,3.28,4.11,-4.11,-4.57,-3.30,-0.84,-0.83,-0.83
180.32,3.26,4.14,3.25,4.14,-4.14,-4.60,-3.32,-0.88,-0.88,-0.89
182.13,3.24,4.17,3.23,4.17,-4.17,-4.62,-3.34,-0.93,-0.94,-0.94
183.95,3.20,4.19,3.20,4.20,-4.20,-4.64,-3.37,-1.00,-0.99,-1.00
185.79,3.18,4.22,3.18,4.23,-4.23,-4.66,-3.39,-1.06,-1.05,-1.05
187.65,3.16,4.27,3.16,4.27,-4.27,-4.67,-3.42,-1.11,-1.11,-1.12
189.52,3.14,4.30,3.14,4.30,-4.30,-4.68,-3.45,-1.16,-1.16,-1.17
191.42,3.13,4.34,3.11,4.33,-4.33,-4.69,-3.49,-1.20,-1.21,-1.22
193.33,3.10,4.36,3.09,4.36,-4.36,-4.69,-3.52,-1.26,-1.27,-1.27
195.27,3.07,4.38,3.07,4.39,-4.39,-4.68,-3.56,-1.32,-1.32,-1.32
197.22,3.05,4.42,3.04,4.41,-4.41,-4.67,-3.60,-1.36,-1.37,-1.38
199.19,3.02,4.44,3.01,4.43,-4.43,-4.66,-3.64,-1.42,-1.42,-1.43
201.18,2.99,4.46,2.98,4.45,-4.45,-4.64,-3.68,-1.47,-1.47,-1.48
203.19,2.96,4.46,2.95,4.47,-4.47,-4.61,-3.73,-1.51,-1.52,-1.51
205.23,2.92,4.48,2.93,4.49,-4.49,-4.58,-3.77,-1.57,-1.56,-1.57
207.28,2.88,4.46,2.89,4.50,-4.50,-4.55,-3.82,-1.62,-1.60,-1.59
209.35,2.85,4.49,2.86,4.50,-4.50,-4.51,-3.86,-1.66,-1.65,-1.65
211.44,2.82,4.51,2.82,4.51,-4.51,-4.47,-3.91,-1.69,-1.69,-1.70
213.56,2.79,4.52,2.78,4.50,-4.50,-4.43,-3.95,-1.72,-1.73,-1.74
215.69,2.75,4.50,2.73,4.50,-4.50,-4.38,-4.00,-1.75,-1.76,-1.76
217.85,2.70,4.49,2.69,4.48,-4.48,-4.33,-4.04,-1.79,-1.80,-1.80
220.03,2.67,4.50,2.64,4.47,-4.47,-4.27,-4.08,-1.80,-1.83,-1.84
222.23,2.61,4.47,2.59,4.45,-4.45,-4.22,-4.12,-1.85,-1.86,-1.87
224.45,2.55,4.43,2.54,4.43,-4.43,-4.16,-4.16,-1.89,-1.89,-1.89
226.70,2.50,4.41,2.49,4.41,-4.41,-4.10,-4.19,-1.91,-1.91,-1.92
228.96,2.43,4.37,2.44,4.38,-4.38,-4.03,-4.22,-1.95,-1.94,-1.95
231.25,2.38,4.33,2.39,4.35,-4.35,-3.97,-4.25,-1.97,-1.96,-1.96
233.57,2.32,4.29,2.34,4.31,-4.31,-3.90,-4.27,-1.99,-1.97,-1.98
235.90,2.26,4.24,2.29,4.27,-4.27,-3.83,-4.29,-2.02,-1.98,-1.99
238.26,2.24,4.23,2.24,4.23,-4.23,-3.76,-4.30,-2.00,-2.00,-2.00
240.64,2.20,4.20,2.19,4.19,-4.19,-3.69,-4.31,-2.00,-2.00,-2.01
243.05,2.16,4.16,2.14,4.15,-4.15,-3.62,-4.31,-1.99,-2.01,-2.01
245.48,2.11,4.12,2.09,4.11,-4.11,-3.55,-4.31,-2.00,-2.01,-2.02
247.93,2.04,4.05,2.05,4.06,-4.06,-3.48,-4.30,-2.02,-2.01,-2.02
250.41,2.00,4.01,2.00,4.01,-4.01,-3.41,-4.28,-2.02,-2.01,-2.02
252.92,1.95,3.95,1.95,3.96,-3.96,-3.34,-4.26,-2.01,-2.01,-2.01
255.45,1.93,3.92,1.91,3.91,-3.91,-3.27,-4.23,-1.98,-2.00,-2.00
258.00,1.88,3.86,1.86,3.85,-3.85,-3.20,-4.20,-1.97,-1.99,-1.99
260.58,1.81,3.79,1.81,3.79,-3.79,-3.13,-4.16,-1.98,-1.98,-1.99
263.19,1.76,3.73,1.75,3.72,-3.72,-3.06,-4.11,-1.97,-1.97,-1.98
265.82,1.69,3.65,1.70,3.66,-3.66,-2.99,-4.06,-1.97,-1.96,-1.97
268.48,1.65,3.59,1.64,3.59,-3.59,-2.92,-4.00,-1.94,-1.95,-1.95
271.16,1.60,3.52,1.59,3.52,-3.52,-2.85,-3.94,-1.93,-1.93,-1.93
273.87,1.53,3.45,1.53,3.45,-3.45,-2.79,-3.88,-1.93,-1.92,-1.93
276.61,1.47,3.36,1.48,3.38,-3.38,-2.72,-3.80,-1.92,-1.91,-1.90
279.38,1.41,3.30,1.42,3.31,-3.31,-2.66,-3.73,-1.90,-1.89,-1.90
282.17,1.36,3.23,1.35,3.24,-3.24,-2.59,-3.65,-1.88,-1.88,-1.88
284.99,1.30,3.16,1.29,3.16,-3.16,-2.53,-3.57,-1.86,-1.87,-1.87
287.84,1.23,3.08,1.23,3.08,-3.08,-2.47,-3.49,-1.86,-1.85,-1.86
290.72,1.18,3.02,1.17,3.01,-3.01,-2.41,-3.41,-1.83,-1.84,-1.85
293.63,1.12,2.94,1.11,2.93,-2.93,-2.35,-3.32,-1.82,-1.82,-1.83
296.57,1.04,2.84,1.04,2.85,-2.85,-2.29,-3.23,-1.82,-1.81,-1.81
299.53,0.97,2.77,0.97,2.77,-2.77,-2.23,-3.15,-1.80,-1.80,-1.81
302.53,0.90,2.69,0.90,2.69,-2.69,-2.17,-3.06,-1.79,-1.79,-1.80
305.55,0.83,2.60,0.83,2.60,-2.60,-2.11,-2.97,-1.78,-1.78,-1.78
308.61,0.76,2.52,0.75,2.52,-2.52,-2.06,-2.88,-1.76,-1.76,-1.77
311.69,0.68,2.43,0.67,2.42,-2.42,-2.00,-2.79,-1.75,-1.75,-1.76
314.81,0.61,2.33,0.59,2.33,-2.33,-1.95,-2.70,-1.73,-1.75,-1.73
317.96,0.52,2.25,0.50,2.24,-2.24,-1.90,-2.61,-1.72,-1.74,-1.74
321.14,0.43,2.15,0.42,2.15,-2.15,-1.84,-2.52,-1.72,-1.73,-1.73
324.35,0.34,2.06,0.33,2.05,-2.05,-1.79,-2.43,-1.71,-1.72,-1.73
327.59,0.23,1.94,0.24,1.96,-1.96,-1.74,-2.35,-1.73,-1.72,-1.72
330.87,0.15,1.86,0.15,1.86,-1.86,-1.69,-2.26,-1.71,-1.71,-1.72
334.18,0.05,1.76,0.06,1.77,-1.77,-1.64,-2.18,-1.72,-1.71,-1.72
337.52,-0.05,1.65,-0.03,1.67,-1.67,-1.59,-2.09,-1.73,-1.71,-1.71
340.90,-0.13,1.57,-0.13,1.58,-1.58,-1.54,-2.01,-1.71,-1.71,-1.71
344.30,-0.22,1.48,-0.22,1.49,-1.49,-1.49,-1.93,-1.71,-1.71,-1.71
347.75,-0.30,1.40,-0.31,1.39,-1.39,-1.44,-1.85,-1.70,-1.71,-1.71
351.23,-0.40,1.30,-0.41,1.30,-1.30,-1.39,-1.77,-1.71,-1.71,-1.71
354.74,-0.48,1.22,-0.50,1.22,-1.22,-1.33,-1.69,-1.70,-1.71,-1.71
358.28,-0.59,1.13,-0.59,1.13,-1.13,-1.28,-1.62,-1.72,-1.72,-1.73
361.87,-0.67,1.05,-0.68,1.04,-1.04,-1.23,-1.54,-1.72,-1.72,-1.73
365.49,-0.76,0.96,-0.76,0.96,-0.96,-1.17,-1.47,-1.73,-1.73,-1.73
369.14,-0.84,0.89,-0.85,0.88,-0.88,-1.12,-1.39,-1.73,-1.73,-1.74
372.83,-0.93,0.80,-0.94,0.80,-0.80,-1.06,-1.32,-1.74,-1.74,-1.74
376.56,-1.04,0.70,-1.03,0.72,-0.72,-1.00,-1.25,-1.77,-1.75,-1.75
380.33,-1.12,0.63,-1.11,0.64,-0.64,-0.94,-1.18,-1.77,-1.75,-1.76
384.13,-1.19,0.57,-1.20,0.57,-0.57,-0.87,-1.12,-1.76,-1.76,-1.77
387.97,-1.27,0.50,-1.28,0.49,-0.49,-0.81,-1.05,-1.76,-1.77,-1.78
391.85,-1.34,0.44,-1.36,0.42,-0.42,-0.73,-0.99,-1.76,-1.78,-1.79
395.77,-1.42,0.35,-1.43,0.35,-0.35,-0.66,-0.92,-1.77,-1.78,-1.78
399.73,-1.49,0.29,-1.51,0.28,-0.28,-0.58,-0.86,-1.78,-1.79,-1.79
403.72,-1.57,0.22,-1.58,0.22,-0.22,-0.49,-0.80,-1.79,-1.80,-1.80
407.76,-1.64,0.16,-1.64,0.16,-0.16,-0.40,-0.74,-1.80,-1.80,-1.81
411.84,-1.71,0.08,-1.70,0.10,-0.10,-0.30,-0.69,-1.82,-1.81,-1.80
415.96,-1.77,0.04,-1.76,0.05,-0.05,-0.20,-0.63,-1.83,-1.81,-1.82
420.12,-1.82,-0.01,-1.81,0.01,-0.01,-0.10,-0.58,-1.83,-1.81,-1.82
424.32,-1.86,-0.05,-1.85,-0.04,0.04,-0.00,-0.52,-1.83,-1.82,-1.82
428.56,-1.90,-0.08,-1.89,-0.07,0.07,0.10,-0.47,-1.83,-1.82,-1.83
432.85,-1.93,-0.11,-1.93,-0.11,0.11,0.19,-0.43,-1.83,-1.82,-1.83
437.18,-1.96,-0.14,-1.95,-0.13,0.13,0.27,-0.38,-1.83,-1.82,-1.83
441.55,-1.97,-0.16,-1.97,-0.15,0.15,0.33,-0.33,-1.82,-1.82,-1.82
445.96,-1.98,-0.17,-1.99,-0.17,0.17,0.38,-0.29,-1.81,-1.82,-1.82
450.42,-2.00,-0.18,-2.00,-0.18,0.18,0.40,-0.25,-1.82,-1.82,-1.83
454.93,-2.00,-0.19,-2.01,-0.19,0.19,0.40,-0.22,-1.81,-1.82,-1.82
459.48,-2.00,-0.19,-2.01,-0.20,0.20,0.38,-0.18,-1.80,-1.81,-1.82
464.07,-2.00,-0.20,-2.02,-0.21,0.21,0.33,-0.15,-1.80,-1.81,-1.81
468.71,-2.00,-0.21,-2.02,-0.21,0.21,0.28,-0.12,-1.79,-1.80,-1.80
473.40,-2.00,-0.20,-2.01,-0.21,0.21,0.21,-0.10,-1.79,-1.80,-1.81
478.13,-1.99,-0.20,-2.01,-0.21,0.21,0.14,-0.07,-1.78,-1.79,-1.80
482.91,-1.98,-0.19,-1.99,-0.21,0.21,0.06,-0.05,-1.78,-1.79,-1.80
487.74,-1.97,-0.19,-1.98,-0.20,0.20,-0.01,-0.04,-1.78,-1.78,-1.79
492.62,-1.96,-0.19,-1.96,-0.18,0.18,-0.08,-0.02,-1.78,-1.78,-1.78
497.55,-1.95,-0.18,-1.94,-0.16,0.16,-0.15,-0.01,-1.79,-1.77,-1.78
502.52,-1.91,-0.15,-1.90,-0.13,0.13,-0.21,-0.01,-1.78,-1.77,-1.77
507.55,-1.88,-0.12,-1.86,-0.10,0.10,-0.27,-0.00,-1.79,-1.77,-1.77
