frequency,raw,error,smoothed,error_smoothed,equalization,parametric_eq,fixed_band_eq,equalized_raw,equalized_smoothed,target
20.00,9.90,3.39,9.91,3.38,-3.38,-2.64,-0.92,6.52,6.53,6.51
20.20,9.85,3.30,9.85,3.29,-3.29,-2.61,-0.94,6.56,6.56,6.55
20.40,9.79,3.20,9.79,3.20,-3.20,-2.57,-0.97,6.59,6.59,6.59
20.61,9.73,3.11,9.73,3.11,-3.11,-2.54,-1.00,6.62,6.62,6.62
20.81,9.68,3.02,9.67,3.02,-3.02,-2.51,-1.03,6.65,6.65,6.66
21.02,9.63,2.93,9.62,2.94,-2.94,-2.48,-1.06,6.68,6.67,6.70
21.23,9.57,2.85,9.56,2.86,-2.86,-2.46,-1.09,6.70,6.70,6.72
21.44,9.52,2.78,9.51,2.79,-2.79,-2.43,-1.12,6.73,6.72,6.74
21.66,9.47,2.71,9.45,2.71,-2.71,-2.41,-1.15,6.75,6.74,6.76
21.87,9.42,2.65,9.40,2.64,-2.64,-2.39,-1.18,6.77,6.76,6.77
22.09,9.37,2.58,9.35,2.57,-2.57,-2.36,-1.22,6.79,6.78,6.79
22.31,9.32,2.52,9.30,2.51,-2.51,-2.34,-1.25,6.81,6.79,6.80
22.54,9.26,2.45,9.25,2.45,-2.45,-2.33,-1.29,6.81,6.80,6.80
22.76,9.20,2.38,9.20,2.39,-2.39,-2.31,-1.32,6.81,6.81,6.81
22.99,9.15,2.33,9.15,2.33,-2.33,-2.29,-1.36,6.82,6.82,6.81
23.22,9.11,2.28,9.11,2.28,-2.28,-2.27,-1.40,6.83,6.83,6.82
23.45,9.06,2.23,9.06,2.22,-2.22,-2.26,-1.44,6.83,6.84,6.83
23.69,9.02,2.18,9.02,2.17,-2.17,-2.24,-1.48,6.84,6.85,6.84
23.92,8.98,2.13,8.99,2.13,-2.13,-2.23,-1.52,6.85,6.86,6.85
24.16,8.95,2.08,8.95,2.09,-2.09,-2.22,-1.56,6.86,6.87,6.87
24.40,8.92,2.03,8.92,2.05,-2.05,-2.21,-1.60,6.87,6.88,6.89
24.65,8.90,2.01,8.90,2.02,-2.02,-2.19,-1.64,6.88,6.88,6.89
24.89,8.89,1.99,8.88,1.99,-1.99,-2.18,-1.68,6.90,6.90,6.90
25.14,8.87,1.96,8.87,1.96,-1.96,-2.17,-1.72,6.90,6.91,6.91
25.39,8.85,1.93,8.86,1.94,-1.94,-2.16,-1.77,6.91,6.92,6.91
25.65,8.84,1.90,8.85,1.92,-1.92,-2.15,-1.81,6.91,6.93,6.93
25.91,8.84,1.91,8.85,1.91,-1.91,-2.14,-1.85,6.93,6.94,6.93
26.16,8.84,1.90,8.84,1.90,-1.90,-2.13,-1.89,6.94,6.95,6.94
26.43,8.85,1.90,8.84,1.89,-1.89,-2.13,-1.93,6.96,6.95,6.95
26.69,8.86,1.90,8.84,1.88,-1.88,-2.12,-1.97,6.98,6.96,6.96
26.96,8.86,1.88,8.85,1.87,-1.87,-2.11,-2.01,6.98,6.97,6.98
27.23,8.86,1.87,8.85,1.87,-1.87,-2.10,-2.05,6.99,6.98,6.99
27.50,8.86,1.86,8.85,1.86,-1.86,-2.10,-2.09,7.00,6.99,6.99
27.77,8.86,1.86,8.85,1.86,-1.86,-2.09,-2.13,7.00,7.00,6.99
28.05,8.86,1.85,8.86,1.85,-1.85,-2.08,-2.16,7.01,7.01,7.01
28.33,8.86,1.85,8.86,1.84,-1.84,-2.08,-2.19,7.01,7.01,7.01
28.62,8.86,1.84,8.86,1.84,-1.84,-2.07,-2.22,7.02,7.02,7.02
28.90,8.86,1.83,8.86,1.83,-1.83,-2.07,-2.25,7.03,7.03,7.03
29.19,8.86,1.83,8.86,1.82,-1.82,-2.06,-2.28,7.03,7.04,7.02
29.48,8.86,1.80,8.86,1.82,-1.82,-2.06,-2.30,7.04,7.04,7.05
29.78,8.86,1.81,8.86,1.81,-1.81,-2.05,-2.32,7.05,7.05,7.05
30.08,8.86,1.80,8.86,1.80,-1.80,-2.05,-2.33,7.05,7.05,7.06
30.38,8.86,1.80,8.86,1.80,-1.80,-2.04,-2.35,7.06,7.06,7.06
30.68,8.86,1.78,8.86,1.79,-1.79,-2.04,-2.36,7.07,7.07,7.07
30.99,8.86,1.79,8.86,1.78,-1.78,-2.03,-2.37,7.07,7.07,7.07
31.30,8.86,1.78,8.86,1.78,-1.78,-2.03,-2.37,7.08,7.08,7.08
31.61,8.86,1.77,8.86,1.77,-1.77,-2.03,-2.37,7.09,7.09,7.09
31.93,8.86,1.76,8.86,1.76,-1.76,-2.02,-2.37,7.10,7.10,7.09
32.24,8.86,1.77,8.86,1.75,-1.75,-2.02,-2.36,7.10,7.10,7.09
32.57,8.86,1.75,8.86,1.75,-1.75,-2.02,-2.35,7.11,7.11,7.11
32.89,8.86,1.74,8.86,1.74,-1.74,-2.01,-2.34,7.12,7.12,7.12
33.22,8.86,1.73,8.86,1.73,-1.73,-2.01,-2.33,7.12,7.12,7.12
33.55,8.86,1.73,8.86,1.73,-1.73,-2.01,-2.31,7.13,7.13,7.13
33.89,8.86,1.72,8.86,1.72,-1.72,-2.00,-2.29,7.13,7.13,7.14
34.23,8.86,1.71,8.86,1.72,-1.72,-2.00,-2.27,7.14,7.14,7.14
34.57,8.86,1.71,8.86,1.72,-1.72,-2.00,-2.24,7.14,7.14,7.15
34.92,8.86,1.71,8.87,1.72,-1.72,-2.00,-2.22,7.14,7.15,7.15
35.27,8.86,1.70,8.87,1.72,-1.72,-1.99,-2.19,7.14,7.15,7.15
35.62,8.86,1.70,8.87,1.72,-1.72,-1.99,-2.16,7.14,7.16,7.16
35.97,8.87,1.71,8.87,1.71,-1.71,-1.99,-2.13,7.15,7.16,7.15
36.33,8.87,1.71,8.87,1.71,-1.71,-1.99,-2.10,7.15,7.16,7.16
36.70,8.88,1.72,8.87,1.71,-1.71,-1.98,-2.07,7.17,7.16,7.16
37.06,8.89,1.73,8.87,1.71,-1.71,-1.98,-2.03,7.18,7.16,7.16
37.43,8.88,1.71,8.86,1.70,-1.70,-1.98,-2.00,7.18,7.16,7.17
37.81,8.87,1.71,8.85,1.69,-1.69,-1.98,-1.97,7.17,7.16,7.16
38.19,8.85,1.69,8.83,1.68,-1.68,-1.98,-1.94,7.17,7.15,7.16
38.57,8.83,1.68,8.82,1.67,-1.67,-1.97,-1.90,7.16,7.15,7.15
38.95,8.81,1.66,8.80,1.65,-1.65,-1.97,-1.87,7.16,7.15,7.15
39.34,8.78,1.64,8.77,1.63,-1.63,-1.97,-1.84,7.15,7.14,7.14
39.74,8.75,1.61,8.75,1.61,-1.61,-1.97,-1.81,7.14,7.14,7.13
40.14,8.72,1.58,8.72,1.59,-1.59,-1.97,-1.78,7.13,7.14,7.14
40.54,8.69,1.56,8.70,1.56,-1.56,-1.97,-1.75,7.12,7.13,7.13
40.94,8.66,1.53,8.67,1.54,-1.54,-1.96,-1.72,7.11,7.13,7.12
41.35,8.63,1.51,8.64,1.52,-1.52,-1.96,-1.69,7.11,7.12,7.12
41.76,8.61,1.49,8.62,1.50,-1.50,-1.96,-1.66,7.11,7.12,7.12
42.18,8.59,1.46,8.60,1.48,-1.48,-1.96,-1.64,7.10,7.11,7.12
42.60,8.58,1.46,8.58,1.46,-1.46,-1.96,-1.61,7.11,7.11,7.11
43.03,8.56,1.44,8.55,1.45,-1.45,-1.96,-1.59,7.11,7.11,7.12
43.46,8.54,1.43,8.54,1.43,-1.43,-1.96,-1.57,7.10,7.10,7.11
43.90,8.52,1.43,8.52,1.42,-1.42,-1.95,-1.55,7.10,7.10,7.09
44.33,8.50,1.41,8.50,1.41,-1.41,-1.95,-1.53,7.09,7.09,7.09
44.78,8.48,1.40,8.48,1.39,-1.39,-1.95,-1.51,7.09,7.09,7.08
45.23,8.46,1.39,8.46,1.38,-1.38,-1.95,-1.49,7.08,7.08,7.07
45.68,8.44,1.37,8.44,1.36,-1.36,-1.95,-1.47,7.08,7.08,7.07
46.13,8.42,1.36,8.41,1.34,-1.34,-1.95,-1.46,7.08,7.07,7.06
46.60,8.40,1.33,8.38,1.32,-1.32,-1.95,-1.44,7.08,7.06,7.07
47.06,8.37,1.31,8.35,1.30,-1.30,-1.95,-1.43,7.07,7.05,7.06
47.53,8.34,1.29,8.32,1.27,-1.27,-1.95,-1.42,7.06,7.04,7.05
48.01,8.30,1.24,8.29,1.25,-1.25,-1.94,-1.41,7.05,7.03,7.05
48.49,8.26,1.22,8.25,1.23,-1.23,-1.94,-1.40,7.03,7.02,7.03
48.97,8.22,1.21,8.22,1.21,-1.21,-1.94,-1.39,7.01,7.01,7.01
49.46,8.18,1.18,8.19,1.19,-1.19,-1.94,-1.38,6.99,7.00,7.00
49.96,8.14,1.17,8.15,1.17,-1.17,-1.94,-1.37,6.97,6.98,6.97
50.46,8.10,1.13,8.12,1.16,-1.16,-1.94,-1.37,6.94,6.97,6.97
50.96,8.07,1.11,8.09,1.14,-1.14,-1.94,-1.36,6.93,6.95,6.95
51.47,8.04,1.12,8.06,1.13,-1.13,-1.94,-1.36,6.91,6.93,6.92
51.99,8.03,1.13,8.02,1.12,-1.12,-1.94,-1.36,6.91,6.91,6.90
52.51,8.01,1.11,7.99,1.11,-1.11,-1.94,-1.35,6.90,6.89,6.89
53.03,7.99,1.12,7.97,1.10,-1.10,-1.94,-1.35,6.89,6.87,6.87
53.56,7.96,1.11,7.94,1.09,-1.09,-1.94,-1.35,6.86,6.84,6.85
54.10,7.93,1.11,7.91,1.09,-1.09,-1.93,-1.35,6.84,6.82,6.82
54.64,7.89,1.08,7.88,1.08,-1.08,-1.93,-1.35,6.80,6.80,6.80
55.18,7.85,1.07,7.85,1.08,-1.08,-1.93,-1.35,6.77,6.78,6.77
55.74,7.82,1.07,7.83,1.07,-1.07,-1.93,-1.35,6.75,6.75,6.74
56.29,7.79,1.05,7.80,1.07,-1.07,-1.93,-1.35,6.72,6.73,6.73
56.86,7.76,1.06,7.76,1.06,-1.06,-1.93,-1.35,6.70,6.70,6.70
57.42,7.74,1.07,7.73,1.05,-1.05,-1.93,-1.35,6.68,6.68,6.67
58.00,7.72,1.07,7.70,1.05,-1.05,-1.93,-1.35,6.67,6.65,6.65
58.58,7.69,1.07,7.67,1.05,-1.05,-1.93,-1.35,6.64,6.62,6.62
59.16,7.66,1.06,7.65,1.06,-1.06,-1.93,-1.35,6.60,6.59,6.60
59.76,7.63,1.05,7.63,1.07,-1.07,-1.93,-1.35,6.56,6.56,6.57
60.35,7.60,1.06,7.61,1.09,-1.09,-1.93,-1.35,6.51,6.52,6.54
60.96,7.58,1.08,7.60,1.11,-1.11,-1.93,-1.35,6.47,6.49,6.50
61.57,7.56,1.10,7.59,1.14,-1.14,-1.93,-1.35,6.42,6.45,6.45
62.18,7.55,1.14,7.58,1.17,-1.17,-1.92,-1.35,6.38,6.41,6.40
62.80,7.54,1.16,7.57,1.20,-1.20,-1.92,-1.35,6.34,6.37,6.37
63.43,7.55,1.22,7.57,1.23,-1.23,-1.92,-1.35,6.31,6.33,6.32
64.07,7.57,1.28,7.56,1.27,-1.27,-1.92,-1.35,6.30,6.29,6.28
64.71,7.58,1.34,7.55,1.31,-1.31,-1.92,-1.35,6.27,6.25,6.24
65.35,7.58,1.38,7.55,1.35,-1.35,-1.92,-1.35,6.23,6.20,6.20
66.01,7.58,1.42,7.54,1.38,-1.38,-1.92,-1.35,6.19,6.16,6.16
66.67,7.56,1.44,7.53,1.42,-1.42,-1.92,-1.34,6.14,6.11,6.12
67.33,7.54,1.46,7.52,1.45,-1.45,-1.92,-1.34,6.09,6.07,6.08
68.01,7.52,1.49,7.50,1.48,-1.48,-1.92,-1.34,6.04,6.02,6.03
68.69,7.49,1.51,7.48,1.50,-1.50,-1.92,-1.34,5.99,5.98,5.98
69.37,7.46,1.52,7.46,1.52,-1.52,-1.92,-1.34,5.93,5.93,5.93
70.07,7.43,1.54,7.43,1.54,-1.54,-1.92,-1.33,5.88,5.89,5.88
70.77,7.40,1.55,7.40,1.56,-1.56,-1.92,-1.33,5.84,5.84,5.84
71.48,7.37,1.56,7.38,1.58,-1.58,-1.92,-1.33,5.79,5.80,5.80
72.19,7.34,1.59,7.35,1.60,-1.60,-1.92,-1.33,5.74,5.75,5.75
72.91,7.31,1.60,7.33,1.62,-1.62,-1.92,-1.33,5.69,5.71,5.71
73.64,7.29,1.62,7.30,1.64,-1.64,-1.92,-1.33,5.65,5.67,5.66
74.38,7.27,1.64,7.29,1.66,-1.66,-1.91,-1.33,5.61,5.63,5.63
75.12,7.26,1.68,7.27,1.68,-1.68,-1.91,-1.33,5.57,5.58,5.58
75.87,7.25,1.70,7.25,1.71,-1.71,-1.91,-1.33,5.54,5.55,5.54
76.63,7.24,1.73,7.24,1.73,-1.73,-1.91,-1.33,5.51,5.51,5.51
77.40,7.23,1.76,7.22,1.75,-1.75,-1.91,-1.34,5.47,5.47,5.47
78.17,7.22,1.79,7.21,1.78,-1.78,-1.91,-1.34,5.44,5.43,5.43
78.95,7.21,1.81,7.19,1.80,-1.80,-1.91,-1.34,5.41,5.40,5.40
79.74,7.19,1.82,7.18,1.81,-1.81,-1.91,-1.35,5.37,5.36,5.36
80.54,7.17,1.84,7.16,1.83,-1.83,-1.91,-1.36,5.34,5.33,5.33
81.35,7.14,1.84,7.14,1.84,-1.84,-1.91,-1.36,5.30,5.30,5.30
82.16,7.12,1.85,7.11,1.85,-1.85,-1.91,-1.37,5.27,5.26,5.26
82.98,7.09,1.85,7.08,1.85,-1.85,-1.91,-1.38,5.24,5.23,5.24
83.81,7.07,1.87,7.06,1.85,-1.85,-1.91,-1.39,5.21,5.20,5.20
84.65,7.03,1.86,7.03,1.85,-1.85,-1.91,-1.40,5.18,5.17,5.16
85.50,7.00,1.85,6.99,1.85,-1.85,-1.91,-1.41,5.15,5.14,5.15
86.35,6.96,1.84,6.96,1.84,-1.84,-1.91,-1.43,5.11,5.12,5.12
87.22,6.91,1.82,6.93,1.84,-1.84,-1.91,-1.44,5.07,5.09,5.09
88.09,6.88,1.82,6.89,1.83,-1.83,-1.90,-1.46,5.05,5.06,5.06
88.97,6.85,1.81,6.86,1.82,-1.82,-1.90,-1.48,5.03,5.03,5.04
89.86,6.82,1.80,6.82,1.81,-1.81,-1.90,-1.49,5.00,5.01,5.01
90.76,6.78,1.81,6.78,1.80,-1.80,-1.90,-1.51,4.97,4.98,4.97
91.66,6.75,1.80,6.74,1.79,-1.79,-1.90,-1.53,4.96,4.95,4.95
92.58,6.71,1.79,6.70,1.78,-1.78,-1.90,-1.55,4.93,4.92,4.91
93.51,6.67,1.77,6.66,1.77,-1.77,-1.90,-1.57,4.90,4.89,4.90
94.44,6.63,1.76,6.62,1.76,-1.76,-1.90,-1.60,4.87,4.86,4.87
95.39,6.59,1.75,6.57,1.75,-1.75,-1.90,-1.62,4.84,4.83,4.84
96.34,6.54,1.74,6.53,1.74,-1.74,-1.90,-1.65,4.80,4.80,4.79
97.30,6.49,1.73,6.49,1.73,-1.73,-1.90,-1.67,4.76,4.76,4.76
98.28,6.44,1.72,6.44,1.71,-1.71,-1.90,-1.70,4.72,4.73,4.72
99.26,6.39,1.70,6.39,1.71,-1.71,-1.90,-1.73,4.68,4.69,4.68
100.25,6.34,1.69,6.35,1.70,-1.70,-1.90,-1.75,4.64,4.65,4.65
101.25,6.29,1.68,6.30,1.69,-1.69,-1.90,-1.78,4.59,4.61,4.61
102.27,6.25,1.68,6.26,1.69,-1.69,-1.90,-1.81,4.55,4.57,4.56
103.29,6.22,1.70,6.21,1.69,-1.69,-1.89,-1.84,4.52,4.52,4.52
104.32,6.18,1.70,6.17,1.70,-1.70,-1.89,-1.87,4.48,4.47,4.48
105.37,6.13,1.70,6.13,1.71,-1.71,-1.89,-1.90,4.42,4.42,4.43
106.42,6.08,1.71,6.08,1.71,-1.71,-1.89,-1.93,4.36,4.37,4.37
107.48,6.04,1.71,6.04,1.73,-1.73,-1.89,-1.96,4.31,4.31,4.32
108.56,6.00,1.74,6.00,1.74,-1.74,-1.89,-1.99,4.26,4.26,4.26
109.64,5.96,1.76,5.96,1.76,-1.76,-1.89,-2.02,4.20,4.20,4.20
110.74,5.93,1.79,5.91,1.78,-1.78,-1.89,-2.04,4.15,4.13,4.14
111.85,5.89,1.81,5.87,1.80,-1.80,-1.89,-2.07,4.08,4.07,4.07
112.97,5.83,1.83,5.83,1.82,-1.82,-1.89,-2.10,4.00,4.00,4.00
114.10,5.78,1.84,5.78,1.85,-1.85,-1.89,-2.12,3.93,3.93,3.94
115.24,5.73,1.86,5.73,1.87,-1.87,-1.89,-2.14,3.86,3.87,3.86
116.39,5.68,1.89,5.69,1.89,-1.89,-1.89,-2.17,3.79,3.80,3.79
117.55,5.64,1.91,5.64,1.91,-1.91,-1.88,-2.19,3.72,3.73,3.72
118.73,5.61,1.96,5.60,1.94,-1.94,-1.88,-2.20,3.67,3.66,3.65
119.92,5.56,1.96,5.55,1.96,-1.96,-1.88,-2.22,3.60,3.59,3.59
121.12,5.51,1.99,5.50,1.98,-1.98,-1.88,-2.23,3.53,3.53,3.52
122.33,5.45,1.99,5.46,1.99,-1.99,-1.88,-2.25,3.45,3.46,3.46
123.55,5.40,1.99,5.41,2.01,-2.01,-1.88,-2.26,3.39,3.40,3.40
124.79,5.36,2.02,5.36,2.02,-2.02,-1.88,-2.26,3.33,3.34,3.34
126.03,5.32,2.04,5.31,2.04,-2.04,-1.88,-2.27,3.28,3.28,3.28
127.29,5.28,2.06,5.27,2.05,-2.05,-1.88,-2.27,3.23,3.22,3.22
128.57,5.23,2.08,5.22,2.06,-2.06,-1.88,-2.28,3.17,3.16,3.15
129.85,5.18,2.08,5.17,2.07,-2.07,-1.88,-2.27,3.11,3.10,3.10
131.15,5.12,2.07,5.12,2.07,-2.07,-1.87,-2.27,3.05,3.05,3.04
132.46,5.06,2.06,5.07,2.07,-2.07,-1.87,-2.27,2.99,3.00,3.00
133.79,5.01,2.06,5.02,2.07,-2.07,-1.87,-2.26,2.94,2.94,2.95
135.12,4.97,2.07,4.96,2.07,-2.07,-1.87,-2.25,2.90,2.89,2.89
136.48,4.93,2.08,4.91,2.07,-2.07,-1.87,-2.24,2.86,2.84,2.85
137.84,4.88,2.08,4.86,2.07,-2.07,-1.87,-2.23,2.81,2.80,2.79
139.22,4.82,2.08,4.81,2.06,-2.06,-1.87,-2.22,2.76,2.75,2.74
140.61,4.76,2.07,4.76,2.06,-2.06,-1.87,-2.21,2.70,2.70,2.69
142.02,4.70,2.04,4.71,2.05,-2.05,-1.87,-2.20,2.64,2.66,2.66
143.44,4.65,2.03,4.66,2.05,-2.05,-1.86,-2.18,2.59,2.61,2.62
144.87,4.60,2.03,4.62,2.05,-2.05,-1.86,-2.17,2.54,2.56,2.57
146.32,4.57,2.05,4.57,2.05,-2.05,-1.86,-2.15,2.51,2.52,2.52
147.78,4.53,2.04,4.53,2.06,-2.06,-1.86,-2.14,2.47,2.47,2.48
149.26,4.49,2.05,4.48,2.06,-2.06,-1.86,-2.13,2.43,2.42,2.44
150.75,4.45,2.08,4.44,2.06,-2.06,-1.86,-2.11,2.39,2.38,2.37
152.26,4.41,2.08,4.40,2.07,-2.07,-1.86,-2.10,2.34,2.33,2.33
153.78,4.37,2.08,4.36,2.08,-2.08,-1.86,-2.09,2.29,2.28,2.28
155.32,4.33,2.11,4.32,2.09,-2.09,-1.85,-2.07,2.23,2.23,2.22
156.88,4.29,2.11,4.29,2.11,-2.11,-1.85,-2.06,2.18,2.18,2.18
158.44,4.24,2.11,4.25,2.13,-2.13,-1.85,-2.05,2.11,2.12,2.13
160.03,4.20,2.13,4.22,2.15,-2.15,-1.85,-2.04,2.05,2.07,2.07
161.63,4.17,2.16,4.18,2.16,-2.16,-1.85,-2.04,2.00,2.02,2.01
163.24,4.14,2.17,4.15,2.18,-2.18,-1.85,-2.03,1.96,1.97,1.96
164.88,4.12,2.20,4.11,2.20,-2.20,-1.85,-2.02,1.92,1.91,1.92
166.53,4.10,2.24,4.08,2.22,-2.22,-1.84,-2.02,1.88,1.86,1.86
168.19,4.07,2.26,4.05,2.24,-2.24,-1.84,-2.02,1.82,1.81,1.81
169.87,4.04,2.29,4.02,2.27,-2.27,-1.84,-2.02,1.77,1.75,1.75
171.57,4.00,2.30,3.99,2.30,-2.30,-1.84,-2.02,1.70,1.69,1.70
173.29,3.96,2.32,3.96,2.33,-2.33,-1.84,-2.02,1.63,1.63,1.64
175.02,3.92,2.33,3.93,2.36,-2.36,-1.84,-2.02,1.56,1.57,1.59
176.77,3.89,2.37,3.91,2.39,-2.39,-1.84,-2.03,1.50,1.52,1.51
178.54,3.86,2.40,3.88,2.42,-2.42,-1.83,-2.04,1.44,1.46,1.46
180.32,3.84,2.44,3.85,2.45,-2.45,-1.83,-2.04,1.39,1.40,1.40
182.13,3.83,2.49,3.82,2.48,-2.48,-1.83,-2.05,1.34,1.33,1.34
183.95,3.81,2.53,3.79,2.52,-2.52,-1.83,-2.07,1.29,1.27,1.27
185.79,3.78,2.56,3.76,2.55,-2.55,-1.83,-2.08,1.23,1.21,1.22
187.65,3.75,2.61,3.73,2.58,-2.58,-1.82,-2.09,1.16,1.15,1.14
189.52,3.71,2.62,3.71,2.61,-2.61,-1.82,-2.11,1.09,1.09,1.09
191.42,3.67,2.63,3.68,2.64,-2.64,-1.82,-2.13,1.02,1.03,1.03
193.33,3.64,2.66,3.65,2.67,-2.67,-1.82,-2.15,0.96,0.98,0.98
195.27,3.61,2.68,3.62,2.70,-2.70,-1.82,-2.17,0.91,0.92,0.93
197.22,3.59,2.72,3.59,2.72,-2.72,-1.81,-2.19,0.87,0.87,0.87
199.19,3.56,2.75,3.55,2.74,-2.74,-1.81,-2.21,0.82,0.81,0.80
201.18,3.53,2.77,3.51,2.75,-2.75,-1.81,-2.23,0.77,0.76,0.75
203.19,3.49,2.77,3.47,2.77,-2.77,-1.81,-2.26,0.72,0.71,0.71
205.23,3.45,2.79,3.43,2.77,-2.77,-1.81,-2.28,0.67,0.66,0.66
207.28,3.40,2.77,3.39,2.78,-2.78,-1.80,-2.30,0.61,0.61,0.63
209.35,3.35,2.78,3.35,2.79,-2.79,-1.80,-2.33,0.56,0.57,0.57
211.44,3.31,2.80,3.31,2.79,-2.79,-1.80,-2.35,0.52,0.52,0.51
213.56,3.27,2.79,3.26,2.79,-2.79,-1.80,-2.38,0.48,0.48,0.47
215.69,3.22,2.77,3.22,2.78,-2.78,-1.79,-2.40,0.44,0.44,0.45
217.85,3.17,2.76,3.17,2.77,-2.77,-1.79,-2.43,0.40,0.40,0.40
220.03,3.13,2.77,3.13,2.76,-2.76,-1.79,-2.45,0.37,0.37,0.36
222.23,3.08,2.75,3.08,2.75,-2.75,-1.79,-2.47,0.33,0.33,0.32
224.45,3.04,2.74,3.04,2.74,-2.74,-1.78,-2.50,0.30,0.30,0.30
226.70,3.00,2.72,3.00,2.72,-2.72,-1.78,-2.52,0.27,0.27,0.28
228.96,2.95,2.70,2.96,2.71,-2.71,-1.78,-2.53,0.24,0.25,0.24
231.25,2.91,2.68,2.92,2.69,-2.69,-1.78,-2.55,0.21,0.23,0.23
233.57,2.87,2.66,2.88,2.67,-2.67,-1.77,-2.56,0.19,0.21,0.21
235.90,2.84,2.65,2.84,2.65,-2.65,-1.77,-2.58,0.19,0.19,0.19
238.26,2.81,2.63,2.81,2.63,-2.63,-1.77,-2.59,0.18,0.18,0.18
240.64,2.79,2.62,2.77,2.60,-2.60,-1.76,-2.59,0.18,0.17,0.16
243.05,2.76,2.59,2.74,2.57,-2.57,-1.76,-2.60,0.18,0.16,0.16
245.48,2.72,2.56,2.70,2.54,-2.54,-1.76,-2.60,0.17,0.16,0.15
247.93,2.68,2.52,2.67,2.51,-2.51,-1.75,-2.60,0.16,0.15,0.15
250.41,2.64,2.49,2.63,2.48,-2.48,-1.75,-2.59,0.16,0.15,0.14
252.92,2.60,2.44,2.60,2.45,-2.45,-1.75,-2.58,0.15,0.16,0.16
255.45,2.56,2.39,2.57,2.41,-2.41,-1.75,-2.57,0.14,0.16,0.17
258.00,2.53,2.36,2.54,2.38,-2.38,-1.74,-2.56,0.15,0.17,0.17
260.58,2.51,2.34,2.52,2.34,-2.34,-1.74,-2.54,0.16,0.17,0.17
263.19,2.49,2.31,2.49,2.31,-2.31,-1.73,-2.52,0.18,0.18,0.18
265.82,2.46,2.27,2.47,2.27,-2.27,-1.73,-2.50,0.18,0.19,0.18
268.48,2.44,2.23,2.44,2.24,-2.24,-1.73,-2.47,0.20,0.20,0.21
271.16,2.42,2.20,2.42,2.21,-2.21,-1.72,-2.45,0.21,0.21,0.22
273.87,2.41,2.18,2.41,2.18,-2.18,-1.72,-2.42,0.23,0.23,0.22
276.61,2.40,2.15,2.39,2.15,-2.15,-1.72,-2.38,0.24,0.24,0.25
279.38,2.38,2.13,2.38,2.13,-2.13,-1.71,-2.35,0.25,0.25,0.25
282.17,2.36,2.09,2.36,2.10,-2.10,-1.71,-2.32,0.26,0.26,0.26
284.99,2.35,2.07,2.35,2.07,-2.07,-1.70,-2.28,0.27,0.27,0.28
287.84,2.33,2.04,2.33,2.04,-2.04,-1.70,-2.24,0.28,0.29,0.28
290.72,2.32,2.02,2.31,2.01,-2.01,-1.70,-2.21,0.31,0.30,0.30
293.63,2.29,1.97,2.29,1.98,-1.98,-1.69,-2.17,0.31,0.31,0.31
296.57,2.27,1.94,2.27,1.94,-1.94,-1.69,-2.13,0.33,0.32,0.33
299.53,2.26,1.92,2.24,1.90,-1.90,-1.68,-2.09,0.36,0.34,0.33
302.53,2.23,1.89,2.21,1.86,-1.86,-1.68,-2.05,0.37,0.35,0.34
305.55,2.20,1.83,2.17,1.82,-1.82,-1.67,-2.01,0.38,0.36,0.36
308.61,2.16,1.79,2.14,1.77,-1.77,-1.67,-1.97,0.38,0.37,0.37
311.69,2.12,1.74,2.11,1.73,-1.73,-1.66,-1.93,0.39,0.38,0.37
314.81,2.07,1.67,2.07,1.69,-1.69,-1.66,-1.90,0.38,0.39,0.40
317.96,2.03,1.63,2.04,1.64,-1.64,-1.65,-1.86,0.38,0.39,0.40
321.14,1.98,1.57,2.00,1.60,-1.60,-1.65,-1.82,0.38,0.40,0.40
324.35,1.94,1.54,1.96,1.56,-1.56,-1.64,-1.79,0.38,0.41,0.40
327.59,1.91,1.49,1.93,1.52,-1.52,-1.64,-1.75,0.39,0.41,0.42
330.87,1.88,1.46,1.89,1.47,-1.47,-1.63,-1.72,0.40,0.42,0.41
334.18,1.86,1.45,1.85,1.43,-1.43,-1.63,-1.69,0.42,0.42,0.41
337.52,1.84,1.42,1.81,1.40,-1.40,-1.62,-1.66,0.44,0.42,0.42
340.90,1.81,1.38,1.78,1.36,-1.36,-1.62,-1.62,0.45,0.42,0.42
344.30,1.77,1.35,1.75,1.33,-1.33,-1.61,-1.60,0.44,0.42,0.42
347.75,1.73,1.31,1.72,1.30,-1.30,-1.61,-1.57,0.43,0.42,0.42
351.23,1.69,1.27,1.69,1.27,-1.27,-1.60,-1.54,0.41,0.41,0.42
354.74,1.65,1.23,1.66,1.25,-1.25,-1.59,-1.51,0.40,0.41,0.41
358.28,1.61,1.21,1.63,1.23,-1.23,-1.59,-1.49,0.38,0.40,0.40
361.87,1.58,1.18,1.60,1.20,-1.20,-1.58,-1.47,0.38,0.40,0.40
365.49,1.55,1.15,1.57,1.18,-1.18,-1.58,-1.44,0.37,0.39,0.40
369.14,1.54,1.15,1.54,1.16,-1.16,-1.57,-1.42,0.38,0.39,0.38
372.83,1.53,1.14,1.51,1.13,-1.13,-1.56,-1.40,0.39,0.38,0.38
376.56,1.51,1.14,1.49,1.11,-1.11,-1.56,-1.39,0.39,0.37,0.37
380.33,1.48,1.11,1.46,1.10,-1.10,-1.55,-1.37,0.38,0.36,0.37
384.13,1.45,1.09,1.43,1.08,-1.08,-1.54,-1.35,0.37,0.36,0.36
387.97,1.42,1.07,1.41,1.06,-1.06,-1.54,-1.34,0.36,0.35,0.34
391.85,1.39,1.05,1.38,1.04,-1.04,-1.53,-1.32,0.35,0.34,0.33
395.77,1.35,1.01,1.36,1.02,-1.02,-1.52,-1.31,0.32,0.33,0.34
399.73,1.32,0.99,1.33,1.00,-1.00,-1.51,-1.29,0.32,0.33,0.33
403.72,1.30,0.98,1.30,0.98,-0.98,-1.51,-1.28,0.32,0.32,0.32
407.76,1.28,0.97,1.27,0.95,-0.95,-1.50,-1.27,0.32,0.32,0.31
411.84,1.25,0.93,1.24,0.93,-0.93,-1.49,-1.26,0.32,0.31,0.32
415.96,1.22,0.91,1.21,0.90,-0.90,-1.48,-1.25,0.31,0.30,0.30
420.12,1.19,0.88,1.18,0.88,-0.88,-1.47,-1.24,0.31,0.30,0.30
424.32,1.16,0.86,1.16,0.86,-0.86,-1.47,-1.23,0.30,0.30,0.30
428.56,1.14,0.85,1.13,0.84,-0.84,-1.46,-1.22,0.30,0.29,0.29
432.85,1.11,0.82,1.11,0.82,-0.82,-1.45,-1.21,0.29,0.29,0.29
437.18,1.09,0.80,1.10,0.81,-0.81,-1.44,-1.20,0.28,0.29,0.29
441.55,1.07,0.77,1.09,0.79,-0.79,-1.43,-1.19,0.27,0.29,0.30
445.96,1.06,0.76,1.08,0.78,-0.78,-1.42,-1.18,0.27,0.29,0.30
450.42,1.05,0.76,1.07,0.77,-0.77,-1.41,-1.17,0.27,0.29,0.29
454.93,1.05,0.75,1.06,0.76,-0.76,-1.40,-1.16,0.28,0.30,0.29
459.48,1.06,0.76,1.06,0.76,-0.76,-1.39,-1.15,0.30,0.30,0.29
464.07,1.07,0.76,1.06,0.76,-0.76,-1.38,-1.14,0.31,0.30,0.30
468.71,1.08,0.77,1.06,0.75,-0.75,-1.38,-1.13,0.32,0.31,0.31
473.40,1.08,0.77,1.06,0.75,-0.75,-1.37,-1.12,0.33,0.31,0.31
478.13,1.08,0.76,1.07,0.75,-0.75,-1.35,-1.10,0.33,0.32,0.32
482.91,1.08,0.76,1.07,0.75,-0.75,-1.34,-1.09,0.33,0.32,0.32
487.74,1.08,0.75,1.07,0.75,-0.75,-1.33,-1.07,0.33,0.33,0.33
492.62,1.08,0.74,1.08,0.74,-0.74,-1.32,-1.06,0.33,0.33,0.34
497.55,1.08,0.74,1.08,0.74,-0.74,-1.31,-1.04,0.34,0.34,0.34
502.52,1.08,0.73,1.08,0.74,-0.74,-1.30,-1.02,0.34,0.34,0.35
507.55,1.08,0.73,1.08,0.73,-0.73,-1.29,-1.00,0.34,0.35,0.35
512.62,1.08,0.73,1.08,0.73,-0.73,-1.28,-0.98,0.35,0.35,0.35
517.75,1.08,0.72,1.08,0.73,-0.73,-1.27,-0.96,0.35,0.35,0.35
522.93,1.08,0.72,1.08,0.72,-0.72,-1.26,-0.94,0.35,0.35,0.35
528.16,1.08,0.72,1.08,0.72,-0.72,-1.24,-0.91,0.35,0.35,0.35
533.44,1.08,0.72,1.08,0.72,-0.72,-1.23,-0.89,0.35,0.35,0.35
538.77,1.08,0.72,1.08,0.73,-0.73,-1.22,-0.86,0.35,0.35,0.35
544.16,1.08,0.72,1.08,0.73,-0.73,-1.21,-0.84,0.35,0.35,0.35
