frequency,raw,error,smoothed,error_smoothed,equalization,parametric_eq,fixed_band_eq,equalized_raw,equalized_smoothed,target
20.00,9.90,4.52,9.91,4.52,-4.52,-3.15,-1.43,5.38,5.40,5.37
20.20,9.85,4.43,9.85,4.42,-4.42,-3.14,-1.47,5.42,5.43,5.41
20.40,9.79,4.33,9.79,4.33,-4.33,-3.13,-1.51,5.45,5.46,5.45
20.61,9.73,4.24,9.73,4.24,-4.24,-3.11,-1.55,5.48,5.49,5.48
20.81,9.68,4.15,9.67,4.16,-4.16,-3.10,-1.60,5.52,5.51,5.52
21.02,9.63,4.06,9.62,4.08,-4.08,-3.09,-1.65,5.55,5.54,5.56
21.23,9.57,3.98,9.56,4.00,-4.00,-3.08,-1.69,5.57,5.56,5.58
21.44,9.52,3.91,9.51,3.92,-3.92,-3.07,-1.74,5.60,5.59,5.60
21.66,9.47,3.84,9.45,3.84,-3.84,-3.06,-1.79,5.62,5.61,5.62
21.87,9.42,3.78,9.40,3.77,-3.77,-3.05,-1.85,5.64,5.63,5.63
22.09,9.37,3.71,9.35,3.70,-3.70,-3.04,-1.90,5.66,5.65,5.65
22.31,9.32,3.65,9.30,3.64,-3.64,-3.03,-1.96,5.68,5.66,5.66
22.54,9.26,3.58,9.25,3.58,-3.58,-3.02,-2.01,5.68,5.67,5.67
22.76,9.20,3.51,9.20,3.52,-3.52,-3.01,-2.07,5.68,5.69,5.68
22.99,9.15,3.46,9.15,3.46,-3.46,-3.00,-2.13,5.69,5.69,5.68
23.22,9.11,3.41,9.11,3.40,-3.40,-2.99,-2.19,5.70,5.70,5.69
23.45,9.06,3.35,9.06,3.35,-3.35,-2.98,-2.25,5.70,5.71,5.70
23.69,9.02,3.30,9.02,3.30,-3.30,-2.98,-2.32,5.71,5.72,5.71
23.92,8.98,3.25,8.99,3.26,-3.26,-2.97,-2.38,5.72,5.73,5.72
24.16,8.95,3.20,8.95,3.21,-3.21,-2.96,-2.45,5.73,5.74,5.74
24.40,8.92,3.15,8.92,3.18,-3.18,-2.95,-2.51,5.74,5.75,5.76
24.65,8.90,3.14,8.90,3.14,-3.14,-2.95,-2.58,5.75,5.76,5.75
24.89,8.89,3.12,8.88,3.11,-3.11,-2.94,-2.65,5.77,5.77,5.76
25.14,8.87,3.09,8.87,3.09,-3.09,-2.94,-2.72,5.78,5.78,5.77
25.39,8.85,3.06,8.86,3.07,-3.07,-2.93,-2.79,5.78,5.79,5.78
25.65,8.84,3.03,8.85,3.05,-3.05,-2.92,-2.86,5.79,5.80,5.80
25.91,8.84,3.03,8.85,3.04,-3.04,-2.92,-2.93,5.80,5.81,5.80
26.16,8.84,3.02,8.84,3.03,-3.03,-2.91,-3.00,5.81,5.82,5.81
26.43,8.85,3.02,8.84,3.02,-3.02,-2.91,-3.06,5.83,5.83,5.82
26.69,8.86,3.02,8.84,3.01,-3.01,-2.91,-3.13,5.85,5.84,5.83
26.96,8.86,3.00,8.85,3.00,-3.00,-2.90,-3.20,5.86,5.84,5.85
27.23,8.86,2.99,8.85,2.99,-2.99,-2.90,-3.26,5.86,5.85,5.86
27.50,8.86,2.99,8.85,2.99,-2.99,-2.89,-3.33,5.87,5.86,5.86
27.77,8.86,2.99,8.85,2.98,-2.98,-2.89,-3.39,5.88,5.87,5.86
28.05,8.86,2.97,8.86,2.97,-2.97,-2.88,-3.45,5.88,5.88,5.88
28.33,8.86,2.97,8.86,2.97,-2.97,-2.88,-3.50,5.89,5.89,5.88
28.62,8.86,2.96,8.86,2.96,-2.96,-2.88,-3.55,5.89,5.90,5.89
28.90,8.86,2.95,8.86,2.95,-2.95,-2.87,-3.60,5.90,5.90,5.90
29.19,8.86,2.95,8.86,2.95,-2.95,-2.87,-3.65,5.91,5.91,5.90
29.48,8.86,2.92,8.86,2.94,-2.94,-2.87,-3.69,5.92,5.92,5.93
29.78,8.86,2.93,8.86,2.93,-2.93,-2.86,-3.72,5.93,5.93,5.92
30.08,8.86,2.92,8.86,2.93,-2.93,-2.86,-3.75,5.93,5.93,5.93
30.38,8.86,2.92,8.86,2.92,-2.92,-2.86,-3.78,5.94,5.94,5.93
30.68,8.86,2.90,8.86,2.91,-2.91,-2.86,-3.80,5.95,5.95,5.95
30.99,8.86,2.90,8.86,2.90,-2.90,-2.85,-3.81,5.95,5.95,5.95
31.30,8.86,2.90,8.86,2.90,-2.90,-2.85,-3.82,5.96,5.96,5.95
31.61,8.86,2.89,8.86,2.89,-2.89,-2.85,-3.82,5.97,5.97,5.96
31.93,8.86,2.88,8.86,2.88,-2.88,-2.85,-3.82,5.98,5.98,5.97
32.24,8.86,2.88,8.86,2.87,-2.87,-2.84,-3.81,5.98,5.98,5.97
32.57,8.86,2.86,8.86,2.87,-2.87,-2.84,-3.80,5.99,5.99,5.99
32.89,8.86,2.86,8.86,2.86,-2.86,-2.84,-3.78,6.00,6.00,5.99
33.22,8.86,2.85,8.86,2.85,-2.85,-2.84,-3.76,6.01,6.00,6.00
33.55,8.86,2.84,8.86,2.84,-2.84,-2.83,-3.74,6.01,6.01,6.01
33.89,8.86,2.83,8.86,2.84,-2.84,-2.83,-3.71,6.02,6.02,6.02
34.23,8.86,2.83,8.86,2.84,-2.84,-2.83,-3.67,6.02,6.02,6.02
34.57,8.86,2.82,8.86,2.83,-2.83,-2.83,-3.63,6.02,6.03,6.03
34.92,8.86,2.82,8.87,2.83,-2.83,-2.83,-3.59,6.03,6.04,6.03
35.27,8.86,2.81,8.87,2.83,-2.83,-2.82,-3.55,6.03,6.04,6.04
35.62,8.86,2.81,8.87,2.83,-2.83,-2.82,-3.51,6.03,6.04,6.04
35.97,8.87,2.82,8.87,2.83,-2.83,-2.82,-3.46,6.04,6.05,6.04
36.33,8.87,2.81,8.87,2.82,-2.82,-2.82,-3.41,6.04,6.05,6.05
36.70,8.88,2.83,8.87,2.82,-2.82,-2.82,-3.36,6.06,6.05,6.04
37.06,8.89,2.83,8.87,2.82,-2.82,-2.82,-3.31,6.07,6.05,6.05
37.43,8.88,2.82,8.86,2.81,-2.81,-2.81,-3.26,6.07,6.05,6.05
37.81,8.87,2.81,8.85,2.80,-2.80,-2.81,-3.21,6.07,6.05,6.05
38.19,8.85,2.79,8.83,2.79,-2.79,-2.81,-3.16,6.06,6.05,6.05
38.57,8.83,2.78,8.82,2.77,-2.77,-2.81,-3.11,6.06,6.04,6.04
38.95,8.81,2.76,8.80,2.75,-2.75,-2.81,-3.06,6.05,6.04,6.04
39.34,8.78,2.74,8.77,2.73,-2.73,-2.81,-3.02,6.04,6.04,6.03
39.74,8.75,2.71,8.75,2.71,-2.71,-2.80,-2.97,6.04,6.04,6.03
40.14,8.72,2.68,8.72,2.69,-2.69,-2.80,-2.92,6.03,6.04,6.03
40.54,8.69,2.65,8.70,2.66,-2.66,-2.80,-2.88,6.02,6.03,6.03
40.94,8.66,2.63,8.67,2.64,-2.64,-2.80,-2.84,6.02,6.03,6.02
41.35,8.63,2.60,8.64,2.62,-2.62,-2.80,-2.80,6.01,6.03,6.02
41.76,8.61,2.58,8.62,2.60,-2.60,-2.80,-2.76,6.01,6.02,6.02
42.18,8.59,2.56,8.60,2.58,-2.58,-2.80,-2.72,6.01,6.02,6.02
42.60,8.58,2.55,8.58,2.56,-2.56,-2.80,-2.69,6.02,6.02,6.02
43.03,8.56,2.53,8.55,2.54,-2.54,-2.79,-2.65,6.02,6.02,6.02
43.46,8.54,2.51,8.54,2.52,-2.52,-2.79,-2.62,6.01,6.01,6.02
43.90,8.52,2.51,8.52,2.51,-2.51,-2.79,-2.59,6.01,6.01,6.00
44.33,8.50,2.49,8.50,2.49,-2.49,-2.79,-2.57,6.01,6.01,6.00
44.78,8.48,2.48,8.48,2.47,-2.47,-2.79,-2.54,6.00,6.01,5.99
45.23,8.46,2.46,8.46,2.46,-2.46,-2.79,-2.52,6.00,6.00,5.99
45.68,8.44,2.44,8.44,2.44,-2.44,-2.79,-2.50,6.00,6.00,5.99
46.13,8.42,2.43,8.41,2.42,-2.42,-2.78,-2.48,6.00,5.99,5.98
46.60,8.40,2.40,8.38,2.39,-2.39,-2.78,-2.46,6.00,5.99,5.99
47.06,8.37,2.38,8.35,2.37,-2.37,-2.78,-2.45,6.00,5.98,5.98
47.53,8.34,2.36,8.32,2.35,-2.35,-2.78,-2.43,5.99,5.97,5.97
48.01,8.30,2.31,8.29,2.32,-2.32,-2.78,-2.42,5.98,5.96,5.98
48.49,8.26,2.29,8.25,2.30,-2.30,-2.78,-2.41,5.96,5.96,5.96
48.97,8.22,2.27,8.22,2.27,-2.27,-2.78,-2.41,5.94,5.95,5.94
49.46,8.18,2.24,8.19,2.25,-2.25,-2.78,-2.40,5.92,5.93,5.93
49.96,8.14,2.22,8.15,2.23,-2.23,-2.77,-2.39,5.91,5.92,5.91
50.46,8.10,2.18,8.12,2.21,-2.21,-2.77,-2.39,5.88,5.91,5.91
50.96,8.07,2.17,8.09,2.20,-2.20,-2.77,-2.39,5.87,5.89,5.89
51.47,8.04,2.17,8.06,2.18,-2.18,-2.77,-2.39,5.86,5.88,5.86
51.99,8.03,2.17,8.02,2.17,-2.17,-2.77,-2.39,5.86,5.86,5.85
52.51,8.01,2.16,7.99,2.15,-2.15,-2.77,-2.39,5.85,5.84,5.84
53.03,7.99,2.16,7.97,2.14,-2.14,-2.77,-2.39,5.85,5.82,5.82
53.56,7.96,2.14,7.94,2.13,-2.13,-2.77,-2.40,5.82,5.80,5.81
54.10,7.93,2.14,7.91,2.12,-2.12,-2.77,-2.40,5.80,5.79,5.78
54.64,7.89,2.11,7.88,2.12,-2.12,-2.76,-2.40,5.77,5.77,5.77
55.18,7.85,2.10,7.85,2.11,-2.11,-2.76,-2.41,5.74,5.75,5.74
55.74,7.82,2.10,7.83,2.10,-2.10,-2.76,-2.41,5.72,5.73,5.71
56.29,7.79,2.07,7.80,2.09,-2.09,-2.76,-2.41,5.70,5.71,5.71
56.86,7.76,2.07,7.76,2.08,-2.08,-2.76,-2.42,5.68,5.69,5.68
57.42,7.74,2.08,7.73,2.07,-2.07,-2.76,-2.42,5.67,5.66,5.65
58.00,7.72,2.08,7.70,2.06,-2.06,-2.76,-2.42,5.66,5.64,5.63
58.58,7.69,2.07,7.67,2.06,-2.06,-2.75,-2.43,5.63,5.61,5.61
59.16,7.66,2.06,7.65,2.06,-2.06,-2.75,-2.43,5.60,5.59,5.59
59.76,7.63,2.05,7.63,2.07,-2.07,-2.75,-2.43,5.56,5.56,5.57
60.35,7.60,2.05,7.61,2.08,-2.08,-2.75,-2.43,5.52,5.53,5.54
60.96,7.58,2.06,7.60,2.10,-2.10,-2.75,-2.43,5.48,5.50,5.51
61.57,7.56,2.09,7.59,2.12,-2.12,-2.75,-2.42,5.44,5.47,5.46
62.18,7.55,2.12,7.58,2.15,-2.15,-2.75,-2.42,5.40,5.43,5.42
62.80,7.54,2.13,7.57,2.17,-2.17,-2.75,-2.41,5.36,5.40,5.40
63.43,7.55,2.19,7.57,2.20,-2.20,-2.74,-2.41,5.34,5.36,5.35
64.07,7.57,2.25,7.56,2.24,-2.24,-2.74,-2.40,5.33,5.32,5.31
64.71,7.58,2.29,7.55,2.27,-2.27,-2.74,-2.39,5.31,5.29,5.28
65.35,7.58,2.33,7.55,2.30,-2.30,-2.74,-2.38,5.27,5.25,5.24
66.01,7.58,2.37,7.54,2.33,-2.33,-2.74,-2.37,5.24,5.21,5.20
66.67,7.56,2.38,7.53,2.36,-2.36,-2.74,-2.35,5.19,5.17,5.17
67.33,7.54,2.40,7.52,2.39,-2.39,-2.74,-2.34,5.15,5.13,5.13
68.01,7.52,2.42,7.50,2.41,-2.41,-2.73,-2.33,5.11,5.09,5.09
68.69,7.49,2.43,7.48,2.43,-2.43,-2.73,-2.31,5.06,5.05,5.05
69.37,7.46,2.44,7.46,2.44,-2.44,-2.73,-2.30,5.01,5.01,5.01
70.07,7.43,2.45,7.43,2.46,-2.46,-2.73,-2.28,4.97,4.97,4.97
70.77,7.40,2.46,7.40,2.47,-2.47,-2.73,-2.26,4.93,4.94,4.93
71.48,7.37,2.46,7.38,2.48,-2.48,-2.73,-2.25,4.89,4.90,4.90
72.19,7.34,2.48,7.35,2.49,-2.49,-2.72,-2.23,4.85,4.86,4.85
72.91,7.31,2.48,7.33,2.50,-2.50,-2.72,-2.22,4.80,4.82,4.82
73.64,7.29,2.50,7.30,2.52,-2.52,-2.72,-2.20,4.77,4.79,4.78
74.38,7.27,2.51,7.29,2.53,-2.53,-2.72,-2.18,4.73,4.75,4.75
75.12,7.26,2.54,7.27,2.55,-2.55,-2.72,-2.17,4.71,4.72,4.71
75.87,7.25,2.56,7.25,2.57,-2.57,-2.72,-2.16,4.68,4.69,4.68
76.63,7.24,2.58,7.24,2.58,-2.58,-2.71,-2.14,4.66,4.66,4.65
77.40,7.23,2.60,7.22,2.60,-2.60,-2.71,-2.13,4.63,4.63,4.62
78.17,7.22,2.62,7.21,2.61,-2.61,-2.71,-2.12,4.60,4.60,4.59
78.95,7.21,2.64,7.19,2.62,-2.62,-2.71,-2.11,4.58,4.57,4.56
79.74,7.19,2.64,7.18,2.63,-2.63,-2.71,-2.10,4.55,4.54,4.54
80.54,7.17,2.64,7.16,2.64,-2.64,-2.71,-2.09,4.53,4.52,4.52
81.35,7.14,2.64,7.14,2.64,-2.64,-2.70,-2.09,4.49,4.49,4.49
82.16,7.12,2.65,7.11,2.64,-2.64,-2.70,-2.08,4.48,4.47,4.46
82.98,7.09,2.63,7.08,2.64,-2.64,-2.70,-2.08,4.45,4.45,4.45
83.81,7.07,2.64,7.06,2.63,-2.63,-2.70,-2.07,4.44,4.43,4.42
84.65,7.03,2.63,7.03,2.62,-2.62,-2.70,-2.07,4.41,4.40,4.39
85.50,7.00,2.61,6.99,2.61,-2.61,-2.69,-2.07,4.39,4.38,4.38
86.35,6.96,2.59,6.96,2.60,-2.60,-2.69,-2.08,4.36,4.36,4.36
87.22,6.91,2.56,6.93,2.58,-2.58,-2.69,-2.08,4.33,4.34,4.34
88.09,6.88,2.55,6.89,2.57,-2.57,-2.69,-2.09,4.31,4.33,4.32
88.97,6.85,2.54,6.86,2.55,-2.55,-2.68,-2.09,4.30,4.31,4.30
89.86,6.82,2.52,6.82,2.53,-2.53,-2.68,-2.10,4.29,4.29,4.29
90.76,6.78,2.51,6.78,2.51,-2.51,-2.68,-2.11,4.26,4.27,4.26
91.66,6.75,2.50,6.74,2.49,-2.49,-2.68,-2.12,4.25,4.25,4.24
92.58,6.71,2.48,6.70,2.47,-2.47,-2.68,-2.14,4.24,4.23,4.22
93.51,6.67,2.45,6.66,2.45,-2.45,-2.67,-2.15,4.22,4.21,4.21
94.44,6.63,2.43,6.62,2.43,-2.43,-2.67,-2.17,4.20,4.19,4.19
95.39,6.59,2.41,6.57,2.41,-2.41,-2.67,-2.19,4.18,4.16,4.17
96.34,6.54,2.39,6.53,2.39,-2.39,-2.67,-2.20,4.15,4.14,4.14
97.30,6.49,2.37,6.49,2.37,-2.37,-2.66,-2.23,4.12,4.12,4.11
98.28,6.44,2.35,6.44,2.35,-2.35,-2.66,-2.25,4.09,4.09,4.08
99.26,6.39,2.32,6.39,2.33,-2.33,-2.66,-2.27,4.06,4.06,4.06
100.25,6.34,2.30,6.35,2.31,-2.31,-2.66,-2.29,4.02,4.03,4.03
101.25,6.29,2.28,6.30,2.30,-2.30,-2.65,-2.32,3.99,4.00,4.00
102.27,6.25,2.28,6.26,2.29,-2.29,-2.65,-2.34,3.96,3.97,3.96
103.29,6.22,2.28,6.21,2.28,-2.28,-2.65,-2.37,3.94,3.94,3.93
104.32,6.18,2.27,6.17,2.27,-2.27,-2.64,-2.39,3.90,3.90,3.90
105.37,6.13,2.26,6.13,2.27,-2.27,-2.64,-2.42,3.86,3.86,3.86
106.42,6.08,2.26,6.08,2.27,-2.27,-2.64,-2.45,3.81,3.82,3.81
107.48,6.04,2.25,6.04,2.27,-2.27,-2.64,-2.47,3.77,3.77,3.78
108.56,6.00,2.27,6.00,2.28,-2.28,-2.63,-2.50,3.72,3.72,3.72
109.64,5.96,2.28,5.96,2.28,-2.28,-2.63,-2.53,3.67,3.67,3.67
110.74,5.93,2.30,5.91,2.30,-2.30,-2.63,-2.55,3.63,3.62,3.62
111.85,5.89,2.31,5.87,2.31,-2.31,-2.62,-2.58,3.58,3.56,3.57
112.97,5.83,2.32,5.83,2.32,-2.32,-2.62,-2.60,3.51,3.51,3.50
114.10,5.78,2.32,5.78,2.33,-2.33,-2.62,-2.62,3.45,3.45,3.45
115.24,5.73,2.33,5.73,2.34,-2.34,-2.61,-2.64,3.38,3.39,3.39
116.39,5.68,2.35,5.69,2.36,-2.36,-2.61,-2.66,3.32,3.33,3.32
117.55,5.64,2.37,5.64,2.37,-2.37,-2.61,-2.68,3.27,3.27,3.26
118.73,5.61,2.40,5.60,2.38,-2.38,-2.60,-2.69,3.22,3.22,3.20
119.92,5.56,2.40,5.55,2.39,-2.39,-2.60,-2.70,3.16,3.16,3.15
121.12,5.51,2.41,5.50,2.40,-2.40,-2.59,-2.71,3.10,3.10,3.09
122.33,5.45,2.40,5.46,2.41,-2.41,-2.59,-2.72,3.04,3.05,3.04
123.55,5.40,2.40,5.41,2.42,-2.42,-2.59,-2.73,2.98,2.99,2.99
124.79,5.36,2.41,5.36,2.42,-2.42,-2.58,-2.73,2.94,2.94,2.94
126.03,5.32,2.42,5.31,2.42,-2.42,-2.58,-2.73,2.89,2.89,2.89
127.29,5.28,2.43,5.27,2.43,-2.43,-2.58,-2.73,2.85,2.84,2.84
128.57,5.23,2.44,5.22,2.43,-2.43,-2.57,-2.72,2.80,2.79,2.78
129.85,5.18,2.43,5.17,2.42,-2.42,-2.57,-2.72,2.75,2.75,2.74
131.15,5.12,2.42,5.12,2.42,-2.42,-2.56,-2.71,2.70,2.70,2.69
132.46,5.06,2.40,5.07,2.41,-2.41,-2.56,-2.70,2.65,2.66,2.65
133.79,5.01,2.39,5.02,2.40,-2.40,-2.55,-2.68,2.60,2.61,2.61
135.12,4.97,2.39,4.96,2.39,-2.39,-2.55,-2.67,2.58,2.57,2.57
136.48,4.93,2.39,4.91,2.38,-2.38,-2.55,-2.65,2.55,2.53,2.53
137.84,4.88,2.38,4.86,2.37,-2.37,-2.54,-2.63,2.51,2.49,2.49
139.22,4.82,2.37,4.81,2.36,-2.36,-2.54,-2.61,2.46,2.45,2.44
140.61,4.76,2.35,4.76,2.34,-2.34,-2.53,-2.59,2.41,2.42,2.40
142.02,4.70,2.31,4.71,2.33,-2.33,-2.53,-2.57,2.36,2.38,2.38
143.44,4.65,2.30,4.66,2.32,-2.32,-2.52,-2.55,2.33,2.34,2.34
144.87,4.60,2.29,4.62,2.31,-2.31,-2.52,-2.52,2.28,2.30,2.30
146.32,4.57,2.30,4.57,2.31,-2.31,-2.51,-2.50,2.26,2.27,2.26
147.78,4.53,2.29,4.53,2.30,-2.30,-2.51,-2.48,2.23,2.23,2.23
149.26,4.49,2.28,4.48,2.29,-2.29,-2.50,-2.45,2.19,2.19,2.20
150.75,4.45,2.30,4.44,2.29,-2.29,-2.50,-2.43,2.16,2.15,2.14
152.26,4.41,2.30,4.40,2.29,-2.29,-2.49,-2.41,2.12,2.11,2.10
153.78,4.37,2.29,4.36,2.29,-2.29,-2.49,-2.38,2.07,2.06,2.07
155.32,4.33,2.31,4.32,2.30,-2.30,-2.48,-2.36,2.03,2.02,2.01
156.88,4.29,2.30,4.29,2.31,-2.31,-2.47,-2.34,1.98,1.98,1.98
158.44,4.24,2.30,4.25,2.32,-2.32,-2.47,-2.32,1.92,1.93,1.93
160.03,4.20,2.31,4.22,2.33,-2.33,-2.46,-2.31,1.87,1.89,1.88
161.63,4.17,2.33,4.18,2.34,-2.34,-2.46,-2.29,1.83,1.84,1.83
163.24,4.14,2.34,4.15,2.35,-2.35,-2.45,-2.27,1.79,1.80,1.79
164.88,4.12,2.36,4.11,2.36,-2.36,-2.45,-2.26,1.75,1.75,1.75
166.53,4.10,2.39,4.08,2.38,-2.38,-2.44,-2.25,1.72,1.70,1.70
168.19,4.07,2.41,4.05,2.39,-2.39,-2.43,-2.24,1.67,1.65,1.65
169.87,4.04,2.43,4.02,2.41,-2.41,-2.43,-2.23,1.62,1.60,1.60
171.57,4.00,2.43,3.99,2.44,-2.44,-2.42,-2.22,1.56,1.55,1.56
173.29,3.96,2.45,3.96,2.46,-2.46,-2.41,-2.21,1.50,1.50,1.50
175.02,3.92,2.46,3.93,2.49,-2.49,-2.41,-2.21,1.43,1.45,1.45
176.77,3.89,2.49,3.91,2.51,-2.51,-2.40,-2.21,1.38,1.40,1.39
178.54,3.86,2.51,3.88,2.54,-2.54,-2.39,-2.21,1.32,1.34,1.34
180.32,3.84,2.55,3.85,2.56,-2.56,-2.39,-2.21,1.28,1.29,1.28
182.13,3.83,2.59,3.82,2.59,-2.59,-2.38,-2.21,1.24,1.23,1.23
183.95,3.81,2.63,3.79,2.61,-2.61,-2.37,-2.21,1.19,1.17,1.17
185.79,3.78,2.65,3.76,2.64,-2.64,-2.37,-2.22,1.13,1.12,1.12
187.65,3.75,2.69,3.73,2.67,-2.67,-2.36,-2.23,1.08,1.06,1.05
189.52,3.71,2.70,3.71,2.70,-2.70,-2.35,-2.24,1.01,1.01,1.00
191.42,3.67,2.71,3.68,2.72,-2.72,-2.34,-2.25,0.94,0.96,0.95
193.33,3.64,2.73,3.65,2.75,-2.75,-2.34,-2.26,0.89,0.90,0.90
195.27,3.61,2.75,3.62,2.77,-2.77,-2.33,-2.27,0.84,0.85,0.85
197.22,3.59,2.79,3.59,2.79,-2.79,-2.32,-2.29,0.80,0.80,0.79
199.19,3.56,2.81,3.55,2.80,-2.80,-2.31,-2.30,0.76,0.75,0.74
201.18,3.53,2.83,3.51,2.81,-2.81,-2.30,-2.32,0.72,0.70,0.69
203.19,3.49,2.82,3.47,2.82,-2.82,-2.30,-2.34,0.67,0.65,0.66
205.23,3.45,2.84,3.43,2.82,-2.82,-2.29,-2.36,0.62,0.61,0.60
207.28,3.40,2.81,3.39,2.83,-2.83,-2.28,-2.37,0.57,0.56,0.58
209.35,3.35,2.82,3.35,2.83,-2.83,-2.27,-2.39,0.52,0.52,0.52
211.44,3.31,2.83,3.31,2.83,-2.83,-2.26,-2.41,0.48,0.48,0.47
213.56,3.27,2.83,3.26,2.82,-2.82,-2.25,-2.43,0.45,0.44,0.43
215.69,3.22,2.80,3.22,2.81,-2.81,-2.24,-2.45,0.40,0.41,0.41
217.85,3.17,2.79,3.17,2.80,-2.80,-2.24,-2.47,0.37,0.37,0.37
220.03,3.13,2.79,3.13,2.79,-2.79,-2.23,-2.49,0.34,0.34,0.33
222.23,3.08,2.77,3.08,2.77,-2.77,-2.22,-2.51,0.30,0.31,0.30
224.45,3.04,2.75,3.04,2.76,-2.76,-2.21,-2.52,0.28,0.28,0.28
226.70,3.00,2.74,3.00,2.74,-2.74,-2.20,-2.54,0.25,0.25,0.25
228.96,2.95,2.72,2.96,2.73,-2.73,-2.19,-2.55,0.22,0.23,0.22
231.25,2.91,2.69,2.92,2.71,-2.71,-2.18,-2.56,0.20,0.21,0.21
233.57,2.87,2.67,2.88,2.68,-2.68,-2.17,-2.57,0.18,0.20,0.19
235.90,2.84,2.65,2.84,2.66,-2.66,-2.16,-2.58,0.18,0.18,0.18
238.26,2.81,2.63,2.81,2.63,-2.63,-2.15,-2.59,0.17,0.17,0.17
240.64,2.79,2.62,2.77,2.61,-2.61,-2.14,-2.59,0.18,0.17,0.16
243.05,2.76,2.59,2.74,2.58,-2.58,-2.13,-2.59,0.18,0.16,0.16
245.48,2.72,2.56,2.70,2.54,-2.54,-2.12,-2.59,0.17,0.16,0.15
247.93,2.68,2.52,2.67,2.51,-2.51,-2.11,-2.58,0.17,0.16,0.15
250.41,2.64,2.48,2.63,2.47,-2.47,-2.10,-2.58,0.16,0.16,0.15
252.92,2.60,2.43,2.60,2.44,-2.44,-2.09,-2.57,0.16,0.16,0.16
255.45,2.56,2.38,2.57,2.40,-2.40,-2.08,-2.55,0.16,0.17,0.17
258.00,2.53,2.34,2.54,2.37,-2.37,-2.07,-2.54,0.16,0.18,0.18
260.58,2.51,2.32,2.52,2.33,-2.33,-2.06,-2.52,0.18,0.19,0.18
263.19,2.49,2.29,2.49,2.29,-2.29,-2.04,-2.50,0.20,0.20,0.19
265.82,2.46,2.25,2.47,2.26,-2.26,-2.03,-2.47,0.20,0.21,0.20
268.48,2.44,2.21,2.44,2.22,-2.22,-2.02,-2.44,0.22,0.22,0.22
271.16,2.42,2.17,2.42,2.19,-2.19,-2.01,-2.42,0.23,0.24,0.24
273.87,2.41,2.16,2.41,2.16,-2.16,-2.00,-2.39,0.25,0.25,0.24
276.61,2.40,2.12,2.39,2.13,-2.13,-1.99,-2.35,0.27,0.26,0.27
279.38,2.38,2.10,2.38,2.10,-2.10,-1.97,-2.32,0.28,0.28,0.27
282.17,2.36,2.06,2.36,2.07,-2.07,-1.96,-2.28,0.28,0.29,0.29
284.99,2.35,2.04,2.35,2.04,-2.04,-1.95,-2.25,0.30,0.30,0.30
287.84,2.33,2.01,2.33,2.01,-2.01,-1.94,-2.21,0.31,0.32,0.31
290.72,2.32,1.99,2.31,1.98,-1.98,-1.93,-2.17,0.34,0.33,0.32
293.63,2.29,1.94,2.29,1.95,-1.95,-1.91,-2.13,0.34,0.34,0.34
296.57,2.27,1.90,2.27,1.91,-1.91,-1.90,-2.09,0.36,0.36,0.36
299.53,2.26,1.89,2.24,1.87,-1.87,-1.89,-2.05,0.39,0.37,0.36
302.53,2.23,1.85,2.21,1.83,-1.83,-1.88,-2.02,0.40,0.38,0.37
305.55,2.20,1.80,2.17,1.78,-1.78,-1.86,-1.98,0.42,0.39,0.39
308.61,2.16,1.75,2.14,1.74,-1.74,-1.85,-1.94,0.42,0.40,0.40
311.69,2.12,1.70,2.11,1.69,-1.69,-1.84,-1.90,0.42,0.42,0.41
314.81,2.07,1.62,2.07,1.65,-1.65,-1.82,-1.86,0.42,0.42,0.44
317.96,2.03,1.59,2.04,1.60,-1.60,-1.81,-1.82,0.42,0.43,0.43
321.14,1.98,1.53,2.00,1.56,-1.56,-1.80,-1.79,0.42,0.44,0.44
324.35,1.94,1.49,1.96,1.52,-1.52,-1.78,-1.75,0.42,0.45,0.44
327.59,1.91,1.45,1.93,1.48,-1.48,-1.77,-1.72,0.43,0.45,0.45
330.87,1.88,1.42,1.89,1.43,-1.43,-1.76,-1.68,0.44,0.46,0.45
334.18,1.86,1.40,1.85,1.39,-1.39,-1.74,-1.65,0.47,0.46,0.45
337.52,1.84,1.37,1.81,1.35,-1.35,-1.73,-1.62,0.48,0.46,0.46
340.90,1.81,1.34,1.78,1.32,-1.32,-1.71,-1.59,0.49,0.46,0.46
344.30,1.77,1.30,1.75,1.29,-1.29,-1.70,-1.56,0.48,0.46,0.46
347.75,1.73,1.26,1.72,1.26,-1.26,-1.69,-1.53,0.47,0.46,0.46
351.23,1.69,1.22,1.69,1.23,-1.23,-1.67,-1.50,0.46,0.46,0.46
354.74,1.65,1.18,1.66,1.20,-1.20,-1.66,-1.48,0.44,0.46,0.46
358.28,1.61,1.16,1.63,1.18,-1.18,-1.64,-1.45,0.43,0.45,0.44
361.87,1.58,1.13,1.60,1.15,-1.15,-1.63,-1.43,0.42,0.45,0.44
365.49,1.55,1.10,1.57,1.13,-1.13,-1.61,-1.40,0.42,0.44,0.44
369.14,1.54,1.10,1.54,1.11,-1.11,-1.60,-1.38,0.43,0.43,0.43
372.83,1.53,1.09,1.51,1.09,-1.09,-1.58,-1.36,0.44,0.43,0.43
376.56,1.51,1.08,1.49,1.06,-1.06,-1.57,-1.34,0.44,0.42,0.42
380.33,1.48,1.06,1.46,1.05,-1.05,-1.55,-1.32,0.43,0.41,0.41
384.13,1.45,1.04,1.43,1.03,-1.03,-1.54,-1.31,0.42,0.41,0.40
387.97,1.42,1.02,1.41,1.01,-1.01,-1.52,-1.29,0.41,0.40,0.39
391.85,1.39,1.00,1.38,0.99,-0.99,-1.51,-1.27,0.40,0.39,0.38
395.77,1.35,0.95,1.36,0.97,-0.97,-1.49,-1.26,0.38,0.39,0.39
399.73,1.32,0.93,1.33,0.95,-0.95,-1.48,-1.25,0.37,0.38,0.38
403.72,1.30,0.92,1.30,0.93,-0.93,-1.46,-1.23,0.37,0.37,0.37
407.76,1.28,0.91,1.27,0.90,-0.90,-1.45,-1.22,0.38,0.37,0.36
411.84,1.25,0.87,1.24,0.87,-0.87,-1.43,-1.21,0.37,0.36,0.37
415.96,1.22,0.86,1.21,0.85,-0.85,-1.41,-1.20,0.37,0.36,0.35
420.12,1.19,0.83,1.18,0.83,-0.83,-1.40,-1.19,0.36,0.35,0.35
424.32,1.16,0.80,1.16,0.80,-0.80,-1.38,-1.18,0.35,0.35,0.35
428.56,1.14,0.79,1.13,0.78,-0.78,-1.37,-1.16,0.35,0.35,0.34
432.85,1.11,0.76,1.11,0.76,-0.76,-1.35,-1.15,0.34,0.35,0.34
437.18,1.09,0.74,1.10,0.75,-0.75,-1.33,-1.14,0.34,0.35,0.34
441.55,1.07,0.71,1.09,0.74,-0.74,-1.32,-1.13,0.33,0.35,0.35
445.96,1.06,0.70,1.08,0.73,-0.73,-1.30,-1.12,0.33,0.35,0.35
450.42,1.05,0.70,1.07,0.72,-0.72,-1.29,-1.11,0.33,0.35,0.34
454.93,1.05,0.69,1.06,0.71,-0.71,-1.27,-1.10,0.34,0.35,0.35
459.48,1.06,0.70,1.06,0.70,-0.70,-1.25,-1.09,0.35,0.36,0.35
464.07,1.07,0.70,1.06,0.70,-0.70,-1.24,-1.08,0.37,0.36,0.36
468.71,1.08,0.70,1.06,0.70,-0.70,-1.22,-1.07,0.38,0.37,0.37
473.40,1.08,0.71,1.06,0.69,-0.69,-1.20,-1.05,0.38,0.37,0.36
478.13,1.08,0.70,1.07,0.69,-0.69,-1.19,-1.04,0.39,0.38,0.37
482.91,1.08,0.70,1.07,0.69,-0.69,-1.17,-1.03,0.39,0.38,0.37
487.74,1.08,0.69,1.07,0.69,-0.69,-1.15,-1.01,0.39,0.39,0.38
492.62,1.08,0.68,1.08,0.69,-0.69,-1.14,-0.99,0.39,0.39,0.39
497.55,1.08,0.68,1.08,0.68,-0.68,-1.12,-0.98,0.39,0.39,0.39
502.52,1.08,0.67,1.08,0.68,-0.68,-1.10,-0.96,0.40,0.40,0.40
507.55,1.08,0.67,1.08,0.68,-0.68,-1.08,-0.94,0.40,0.40,0.40
512.62,1.08,0.67,1.08,0.67,-0.67,-1.07,-0.92,0.40,0.41,0.40
517.75,1.08,0.66,1.08,0.67,-0.67,-1.05,-0.89,0.41,0.41,0.41
522.93,1.08,0.66,1.08,0.67,-0.67,-1.03,-0.87,0.41,0.41,0.41
528.16,1.08,0.66,1.08,0.66,-0.66,-1.01,-0.85,0.41,0.41,0.41
533.44,1.08,0.66,1.08,0.66,-0.66,-1.00,-0.82,0.41,0.41,0.41
538.77,1.08,0.66,1.08,0.66,-0.66,-0.98,-0.80,0.41,0.41,0.41
544.16,1.08,0.66,1.08,0.67,-0.67,-0.96,-0.77,0.41,0.41,0.41
