frequency,raw,error,smoothed,error_smoothed,equalization,parametric_eq,fixed_band_eq,equalized_raw,equalized_smoothed,target
20.00,2.11,-1.51,2.12,-1.52,1.52,1.48,0.73,3.63,3.64,3.61
20.20,2.13,-1.54,2.13,-1.55,1.55,1.49,0.75,3.67,3.68,3.66
20.40,2.15,-1.57,2.15,-1.57,1.57,1.51,0.77,3.72,3.72,3.71
20.61,2.17,-1.58,2.16,-1.59,1.59,1.52,0.80,3.76,3.75,3.74
20.81,2.19,-1.61,2.17,-1.61,1.61,1.53,0.82,3.80,3.78,3.80
21.02,2.21,-1.63,2.18,-1.63,1.63,1.54,0.84,3.83,3.81,3.83
21.23,2.21,-1.65,2.19,-1.64,1.64,1.55,0.87,3.85,3.83,3.85
21.44,2.21,-1.67,2.20,-1.65,1.65,1.56,0.89,3.86,3.86,3.87
21.66,2.21,-1.69,2.21,-1.67,1.67,1.57,0.91,3.87,3.88,3.89
21.87,2.21,-1.70,2.22,-1.67,1.67,1.58,0.94,3.88,3.90,3.90
22.09,2.22,-1.71,2.23,-1.68,1.68,1.59,0.97,3.90,3.91,3.92
22.31,2.23,-1.71,2.24,-1.69,1.69,1.60,0.99,3.91,3.93,3.93
22.54,2.24,-1.70,2.25,-1.68,1.68,1.61,1.02,3.92,3.93,3.93
22.76,2.26,-1.68,2.25,-1.68,1.68,1.62,1.05,3.94,3.93,3.93
22.99,2.27,-1.66,2.26,-1.68,1.68,1.63,1.08,3.94,3.94,3.92
23.22,2.28,-1.65,2.27,-1.67,1.67,1.63,1.11,3.95,3.94,3.92
23.45,2.28,-1.65,2.27,-1.66,1.66,1.64,1.14,3.94,3.94,3.92
23.69,2.29,-1.65,2.28,-1.66,1.66,1.65,1.17,3.94,3.94,3.93
23.92,2.30,-1.64,2.29,-1.65,1.65,1.65,1.20,3.95,3.94,3.93
24.16,2.30,-1.64,2.29,-1.65,1.65,1.66,1.24,3.94,3.94,3.93
24.40,2.30,-1.65,2.29,-1.64,1.64,1.67,1.27,3.94,3.94,3.94
24.65,2.30,-1.64,2.30,-1.64,1.64,1.67,1.30,3.94,3.94,3.93
24.89,2.30,-1.64,2.30,-1.64,1.64,1.68,1.33,3.93,3.94,3.93
25.14,2.30,-1.64,2.30,-1.64,1.64,1.68,1.37,3.94,3.94,3.93
25.39,2.30,-1.65,2.30,-1.64,1.64,1.68,1.40,3.94,3.94,3.94
25.65,2.30,-1.65,2.30,-1.64,1.64,1.69,1.44,3.94,3.94,3.94
25.91,2.30,-1.64,2.30,-1.64,1.64,1.69,1.47,3.94,3.94,3.93
26.16,2.30,-1.64,2.30,-1.64,1.64,1.69,1.50,3.94,3.94,3.93
26.43,2.30,-1.64,2.30,-1.64,1.64,1.69,1.54,3.93,3.94,3.93
26.69,2.30,-1.64,2.30,-1.64,1.64,1.70,1.57,3.93,3.93,3.93
26.96,2.30,-1.64,2.30,-1.64,1.64,1.70,1.60,3.93,3.93,3.93
27.23,2.30,-1.64,2.30,-1.63,1.63,1.70,1.63,3.93,3.93,3.93
27.50,2.30,-1.64,2.30,-1.63,1.63,1.70,1.66,3.93,3.93,3.93
27.77,2.30,-1.63,2.30,-1.63,1.63,1.70,1.69,3.93,3.93,3.92
28.05,2.30,-1.63,2.30,-1.63,1.63,1.70,1.72,3.93,3.93,3.92
28.33,2.30,-1.62,2.30,-1.63,1.63,1.70,1.75,3.92,3.92,3.91
28.62,2.30,-1.62,2.30,-1.63,1.63,1.69,1.78,3.92,3.92,3.91
28.90,2.30,-1.63,2.30,-1.63,1.63,1.69,1.80,3.92,3.92,3.92
29.19,2.30,-1.62,2.30,-1.62,1.62,1.69,1.82,3.92,3.92,3.91
29.48,2.30,-1.63,2.30,-1.62,1.62,1.69,1.84,3.92,3.92,3.92
29.78,2.30,-1.62,2.30,-1.62,1.62,1.68,1.86,3.92,3.92,3.91
30.08,2.30,-1.63,2.30,-1.62,1.62,1.68,1.88,3.92,3.92,3.92
30.38,2.30,-1.62,2.30,-1.62,1.62,1.68,1.89,3.91,3.91,3.91
30.68,2.30,-1.62,2.30,-1.62,1.62,1.67,1.91,3.91,3.91,3.91
30.99,2.30,-1.62,2.30,-1.62,1.62,1.67,1.92,3.91,3.91,3.91
31.30,2.30,-1.61,2.30,-1.61,1.61,1.66,1.92,3.91,3.91,3.90
31.61,2.30,-1.61,2.30,-1.61,1.61,1.66,1.93,3.91,3.91,3.90
31.93,2.30,-1.61,2.30,-1.61,1.61,1.65,1.93,3.90,3.90,3.90
32.24,2.30,-1.60,2.30,-1.60,1.60,1.65,1.93,3.90,3.90,3.89
32.57,2.30,-1.60,2.30,-1.60,1.60,1.64,1.93,3.89,3.89,3.89
32.89,2.30,-1.60,2.30,-1.59,1.59,1.64,1.93,3.89,3.89,3.89
33.22,2.30,-1.59,2.30,-1.59,1.59,1.63,1.92,3.89,3.89,3.88
33.55,2.30,-1.59,2.30,-1.58,1.58,1.62,1.91,3.88,3.88,3.88
33.89,2.30,-1.58,2.30,-1.58,1.58,1.62,1.90,3.88,3.88,3.87
34.23,2.30,-1.58,2.30,-1.58,1.58,1.61,1.89,3.87,3.87,3.87
34.57,2.30,-1.57,2.30,-1.57,1.57,1.60,1.88,3.87,3.87,3.86
34.92,2.30,-1.57,2.30,-1.57,1.57,1.60,1.87,3.86,3.86,3.86
35.27,2.30,-1.56,2.30,-1.56,1.56,1.59,1.86,3.86,3.86,3.85
35.62,2.30,-1.56,2.30,-1.56,1.56,1.58,1.84,3.86,3.86,3.85
35.97,2.30,-1.56,2.30,-1.56,1.56,1.58,1.83,3.85,3.86,3.85
36.33,2.30,-1.56,2.30,-1.55,1.55,1.57,1.81,3.85,3.85,3.85
36.70,2.30,-1.55,2.31,-1.54,1.54,1.56,1.79,3.84,3.85,3.84
37.06,2.30,-1.55,2.31,-1.54,1.54,1.55,1.78,3.84,3.85,3.84
37.43,2.30,-1.56,2.30,-1.55,1.55,1.55,1.76,3.84,3.85,3.85
37.81,2.30,-1.56,2.29,-1.56,1.56,1.54,1.75,3.86,3.85,3.85
38.19,2.30,-1.55,2.28,-1.57,1.57,1.53,1.73,3.87,3.85,3.84
38.57,2.30,-1.56,2.27,-1.59,1.59,1.52,1.71,3.88,3.85,3.85
38.95,2.30,-1.57,2.26,-1.60,1.60,1.52,1.70,3.89,3.85,3.86
39.34,2.30,-1.56,2.25,-1.60,1.60,1.51,1.69,3.90,3.86,3.85
39.74,2.30,-1.56,2.25,-1.60,1.60,1.50,1.67,3.90,3.85,3.85
40.14,2.27,-1.59,2.24,-1.61,1.61,1.50,1.66,3.88,3.85,3.85
40.54,2.18,-1.68,2.23,-1.62,1.62,1.49,1.65,3.79,3.85,3.85
40.94,2.08,-1.77,2.22,-1.62,1.62,1.48,1.64,3.70,3.85,3.84
41.35,2.12,-1.73,2.21,-1.63,1.63,1.48,1.63,3.75,3.84,3.84
41.76,2.18,-1.66,2.20,-1.63,1.63,1.47,1.62,3.81,3.84,3.83
42.18,2.23,-1.61,2.19,-1.64,1.64,1.47,1.62,3.86,3.83,3.83
42.60,2.27,-1.56,2.18,-1.64,1.64,1.46,1.61,3.91,3.82,3.82
43.03,2.30,-1.52,2.17,-1.64,1.64,1.46,1.61,3.93,3.81,3.81
43.46,2.22,-1.59,2.16,-1.64,1.64,1.45,1.60,3.85,3.79,3.80
43.90,2.13,-1.66,2.14,-1.64,1.64,1.45,1.60,3.77,3.78,3.78
44.33,2.11,-1.66,2.14,-1.63,1.63,1.44,1.60,3.73,3.77,3.76
44.78,2.11,-1.64,2.15,-1.61,1.61,1.44,1.60,3.72,3.76,3.74
45.23,2.11,-1.63,2.15,-1.59,1.59,1.44,1.60,3.70,3.74,3.73
45.68,2.11,-1.62,2.15,-1.58,1.58,1.43,1.61,3.69,3.73,3.72
46.13,2.11,-1.60,2.13,-1.58,1.58,1.43,1.61,3.69,3.72,3.70
46.60,2.11,-1.60,2.12,-1.58,1.58,1.43,1.62,3.69,3.70,3.70
47.06,2.11,-1.58,2.10,-1.58,1.58,1.43,1.62,3.69,3.69,3.68
47.53,2.11,-1.57,2.09,-1.58,1.58,1.43,1.63,3.69,3.67,3.67
48.01,2.11,-1.57,2.09,-1.57,1.57,1.43,1.64,3.67,3.66,3.67
48.49,2.15,-1.51,2.10,-1.55,1.55,1.43,1.65,3.69,3.64,3.65
48.97,2.20,-1.44,2.10,-1.53,1.53,1.43,1.66,3.73,3.63,3.63
49.46,2.11,-1.51,2.09,-1.53,1.53,1.43,1.67,3.63,3.62,3.61
49.96,2.02,-1.58,2.07,-1.53,1.53,1.44,1.68,3.55,3.60,3.59
50.46,2.01,-1.58,2.06,-1.53,1.53,1.44,1.70,3.54,3.59,3.58
50.96,2.01,-1.57,2.04,-1.54,1.54,1.44,1.71,3.54,3.58,3.57
51.47,2.01,-1.55,2.02,-1.54,1.54,1.45,1.73,3.55,3.56,3.55
51.99,2.01,-1.54,2.01,-1.55,1.55,1.46,1.74,3.55,3.55,3.54
52.51,2.06,-1.48,1.99,-1.55,1.55,1.46,1.76,3.60,3.54,3.53
53.03,2.09,-1.45,1.98,-1.55,1.55,1.47,1.77,3.63,3.53,3.53
53.56,1.95,-1.57,1.96,-1.55,1.55,1.48,1.79,3.49,3.51,3.51
54.10,1.85,-1.66,1.95,-1.55,1.55,1.49,1.80,3.40,3.50,3.50
54.64,1.88,-1.61,1.94,-1.55,1.55,1.50,1.82,3.43,3.49,3.48
55.18,1.90,-1.59,1.94,-1.54,1.54,1.51,1.83,3.44,3.48,3.48
55.74,1.91,-1.56,1.93,-1.54,1.54,1.52,1.84,3.45,3.47,3.46
56.29,1.92,-1.54,1.91,-1.55,1.55,1.54,1.86,3.46,3.46,3.45
56.86,1.92,-1.53,1.89,-1.56,1.56,1.55,1.87,3.47,3.44,3.44
57.42,1.91,-1.51,1.86,-1.56,1.56,1.56,1.88,3.47,3.43,3.41
58.00,1.90,-1.51,1.84,-1.57,1.57,1.58,1.89,3.46,3.41,3.40
58.58,1.84,-1.56,1.80,-1.58,1.58,1.60,1.90,3.42,3.38,3.39
59.16,1.79,-1.59,1.76,-1.60,1.60,1.61,1.90,3.38,3.36,3.37
59.76,1.74,-1.62,1.72,-1.61,1.61,1.63,1.91,3.35,3.33,3.35
60.35,1.68,-1.64,1.67,-1.63,1.63,1.65,1.91,3.30,3.30,3.31
60.96,1.61,-1.67,1.62,-1.65,1.65,1.67,1.91,3.26,3.27,3.27
61.57,1.56,-1.68,1.56,-1.67,1.67,1.69,1.91,3.23,3.23,3.23
62.18,1.50,-1.70,1.50,-1.70,1.70,1.71,1.91,3.19,3.19,3.19
62.80,1.45,-1.70,1.44,-1.71,1.71,1.73,1.90,3.16,3.15,3.14
63.43,1.36,-1.75,1.37,-1.74,1.74,1.75,1.90,3.09,3.11,3.10
64.07,1.26,-1.80,1.31,-1.76,1.76,1.77,1.89,3.02,3.07,3.05
64.71,1.14,-1.88,1.24,-1.78,1.78,1.79,1.88,2.92,3.02,3.01
65.35,1.13,-1.85,1.16,-1.81,1.81,1.81,1.87,2.94,2.97,2.97
66.01,1.19,-1.74,1.09,-1.84,1.84,1.82,1.85,3.02,2.93,2.92
66.67,1.10,-1.78,1.02,-1.86,1.86,1.84,1.83,2.95,2.88,2.87
67.33,1.02,-1.81,0.95,-1.88,1.88,1.86,1.82,2.89,2.83,2.82
68.01,0.94,-1.85,0.89,-1.90,1.90,1.87,1.80,2.83,2.78,2.78
68.69,0.86,-1.88,0.82,-1.91,1.91,1.89,1.78,2.77,2.73,2.73
69.37,0.72,-1.96,0.75,-1.93,1.93,1.90,1.76,2.65,2.68,2.68
70.07,0.57,-2.07,0.70,-1.93,1.93,1.91,1.73,2.50,2.63,2.63
70.77,0.61,-1.98,0.64,-1.93,1.93,1.92,1.71,2.54,2.57,2.58
71.48,0.52,-2.02,0.59,-1.93,1.93,1.92,1.69,2.45,2.52,2.53
72.19,0.45,-2.02,0.54,-1.93,1.93,1.92,1.66,2.37,2.46,2.46
72.91,0.56,-1.85,0.48,-1.93,1.93,1.92,1.64,2.48,2.41,2.40
73.64,0.45,-1.91,0.42,-1.93,1.93,1.92,1.61,2.38,2.35,2.35
74.38,0.38,-1.92,0.36,-1.93,1.93,1.91,1.58,2.31,2.30,2.29
75.12,0.36,-1.88,0.31,-1.93,1.93,1.90,1.56,2.29,2.24,2.23
75.87,0.30,-1.88,0.26,-1.93,1.93,1.89,1.53,2.22,2.19,2.17
76.63,0.28,-1.85,0.21,-1.92,1.92,1.88,1.51,2.20,2.13,2.12
77.40,0.23,-1.85,0.16,-1.91,1.91,1.86,1.48,2.14,2.08,2.07
78.17,0.14,-1.88,0.12,-1.91,1.91,1.84,1.46,2.04,2.02,2.01
78.95,0.08,-1.90,0.06,-1.91,1.91,1.82,1.43,1.99,1.97,1.97
79.74,0.01,-1.92,0.01,-1.91,1.91,1.79,1.41,1.92,1.92,1.92
80.54,-0.09,-1.97,-0.03,-1.91,1.91,1.76,1.39,1.81,1.88,1.87
81.35,-0.16,-1.99,-0.06,-1.89,1.89,1.73,1.37,1.73,1.83,1.82
82.16,-0.16,-1.94,-0.09,-1.86,1.86,1.70,1.34,1.70,1.78,1.77
82.98,-0.11,-1.85,-0.10,-1.84,1.84,1.67,1.32,1.72,1.73,1.73
83.81,-0.11,-1.80,-0.12,-1.80,1.80,1.63,1.30,1.69,1.68,1.68
84.65,-0.11,-1.75,-0.12,-1.76,1.76,1.60,1.29,1.64,1.64,1.63
85.50,-0.11,-1.71,-0.11,-1.70,1.70,1.56,1.27,1.59,1.59,1.59
86.35,-0.11,-1.66,-0.10,-1.63,1.63,1.53,1.25,1.52,1.54,1.54
87.22,-0.09,-1.59,-0.07,-1.56,1.56,1.49,1.24,1.46,1.49,1.49
88.09,-0.01,-1.46,-0.04,-1.47,1.47,1.45,1.22,1.46,1.44,1.44
88.97,0.11,-1.28,0.01,-1.38,1.38,1.41,1.21,1.49,1.39,1.38
89.86,0.02,-1.32,0.04,-1.30,1.30,1.37,1.19,1.31,1.34,1.33
90.76,-0.01,-1.30,0.07,-1.22,1.22,1.34,1.18,1.21,1.29,1.28
91.66,0.06,-1.18,0.09,-1.14,1.14,1.30,1.17,1.20,1.24,1.23
92.58,0.09,-1.09,0.10,-1.08,1.08,1.26,1.16,1.17,1.18,1.17
93.51,0.14,-0.99,0.11,-1.02,1.02,1.22,1.15,1.16,1.13,1.12
94.44,0.19,-0.90,0.11,-0.98,0.98,1.19,1.14,1.16,1.08,1.08
95.39,0.19,-0.85,0.10,-0.93,0.93,1.15,1.14,1.12,1.03,1.03
96.34,0.18,-0.81,0.09,-0.89,0.89,1.12,1.13,1.07,0.98,0.98
97.30,0.16,-0.78,0.09,-0.85,0.85,1.08,1.12,1.01,0.94,0.93
98.28,0.06,-0.83,0.06,-0.83,0.83,1.05,1.12,0.88,0.89,0.88
99.26,-0.06,-0.91,0.03,-0.81,0.81,1.02,1.11,0.75,0.84,0.84
100.25,-0.01,-0.81,0.01,-0.79,0.79,0.99,1.11,0.77,0.79,0.79
101.25,-0.04,-0.78,-0.02,-0.77,0.77,0.95,1.11,0.73,0.74,0.74
102.27,-0.21,-0.91,-0.05,-0.75,0.75,0.92,1.10,0.54,0.70,0.69
103.29,-0.15,-0.80,-0.08,-0.73,0.73,0.90,1.10,0.57,0.65,0.64
104.32,-0.12,-0.73,-0.13,-0.73,0.73,0.87,1.10,0.60,0.60,0.60
105.37,-0.11,-0.67,-0.18,-0.73,0.73,0.84,1.10,0.62,0.55,0.55
106.42,-0.09,-0.60,-0.23,-0.73,0.73,0.81,1.10,0.63,0.50,0.50
107.48,-0.27,-0.72,-0.28,-0.73,0.73,0.79,1.09,0.45,0.44,0.44
108.56,-0.42,-0.82,-0.33,-0.73,0.73,0.76,1.09,0.30,0.39,0.39
109.64,-0.33,-0.68,-0.38,-0.72,0.72,0.74,1.09,0.39,0.34,0.34
110.74,-0.32,-0.61,-0.44,-0.72,0.72,0.71,1.09,0.40,0.29,0.28
111.85,-0.38,-0.63,-0.50,-0.74,0.74,0.69,1.08,0.36,0.24,0.24
112.97,-0.52,-0.71,-0.56,-0.75,0.75,0.67,1.08,0.23,0.19,0.18
114.10,-0.73,-0.87,-0.62,-0.76,0.76,0.65,1.08,0.03,0.14,0.13
115.24,-0.94,-1.03,-0.70,-0.79,0.79,0.63,1.07,-0.15,0.09,0.08
116.39,-0.82,-0.86,-0.78,-0.82,0.82,0.61,1.07,-0.00,0.05,0.03
117.55,-0.75,-0.75,-0.85,-0.85,0.85,0.59,1.06,0.10,0.00,-0.01
118.73,-0.90,-0.86,-0.91,-0.88,0.88,0.57,1.05,-0.03,-0.04,-0.05
119.92,-0.88,-0.81,-0.96,-0.89,0.89,0.55,1.04,0.01,-0.07,-0.08
121.12,-0.98,-0.87,-1.02,-0.91,0.91,0.53,1.03,-0.08,-0.11,-0.12
122.33,-1.10,-0.96,-1.07,-0.92,0.92,0.51,1.02,-0.18,-0.14,-0.15
123.55,-1.10,-0.93,-1.10,-0.93,0.93,0.50,1.01,-0.18,-0.18,-0.18
124.79,-1.07,-0.87,-1.12,-0.91,0.91,0.48,1.00,-0.16,-0.21,-0.21
126.03,-1.24,-1.01,-1.13,-0.89,0.89,0.47,0.98,-0.35,-0.24,-0.24
127.29,-1.25,-1.00,-1.14,-0.87,0.87,0.45,0.97,-0.38,-0.27,-0.26
128.57,-1.22,-0.93,-1.15,-0.85,0.85,0.44,0.95,-0.37,-0.30,-0.30
129.85,-1.18,-0.86,-1.18,-0.85,0.85,0.42,0.93,-0.33,-0.33,-0.33
131.15,-1.18,-0.83,-1.20,-0.85,0.85,0.41,0.91,-0.34,-0.35,-0.36
132.46,-1.17,-0.79,-1.21,-0.83,0.83,0.39,0.89,-0.34,-0.38,-0.39
133.79,-1.14,-0.73,-1.23,-0.82,0.82,0.38,0.87,-0.32,-0.41,-0.42
135.12,-1.15,-0.71,-1.24,-0.80,0.80,0.37,0.84,-0.35,-0.44,-0.45
136.48,-1.21,-0.75,-1.26,-0.79,0.79,0.35,0.82,-0.42,-0.47,-0.47
137.84,-1.25,-0.75,-1.29,-0.80,0.80,0.34,0.79,-0.46,-0.49,-0.51
139.22,-1.31,-0.78,-1.32,-0.80,0.80,0.33,0.76,-0.52,-0.52,-0.54
140.61,-1.38,-0.82,-1.35,-0.80,0.80,0.32,0.74,-0.59,-0.55,-0.57
142.02,-1.44,-0.86,-1.39,-0.81,0.81,0.31,0.71,-0.64,-0.59,-0.59
143.44,-1.51,-0.90,-1.44,-0.82,0.82,0.30,0.68,-0.69,-0.62,-0.62
144.87,-1.54,-0.89,-1.50,-0.84,0.84,0.28,0.65,-0.71,-0.66,-0.66
146.32,-1.54,-0.85,-1.56,-0.86,0.86,0.27,0.62,-0.69,-0.70,-0.70
147.78,-1.58,-0.86,-1.64,-0.89,0.89,0.26,0.59,-0.70,-0.75,-0.73
149.26,-1.68,-0.91,-1.73,-0.93,0.93,0.25,0.55,-0.76,-0.80,-0.78
150.75,-1.80,-0.97,-1.83,-0.96,0.96,0.24,0.52,-0.84,-0.86,-0.84
152.26,-1.83,-0.93,-1.92,-1.00,1.00,0.23,0.49,-0.83,-0.93,-0.91
153.78,-1.85,-0.88,-2.02,-1.03,1.03,0.22,0.46,-0.83,-0.99,-0.98
155.32,-1.96,-0.92,-2.10,-1.04,1.04,0.21,0.42,-0.92,-1.06,-1.05
156.88,-2.05,-0.93,-2.17,-1.04,1.04,0.20,0.39,-1.01,-1.13,-1.13
158.44,-2.22,-1.02,-2.21,-1.01,1.01,0.20,0.36,-1.21,-1.20,-1.21
160.03,-2.37,-1.09,-2.23,-0.96,0.96,0.19,0.33,-1.42,-1.27,-1.29
161.63,-2.47,-1.12,-2.22,-0.88,0.88,0.18,0.29,-1.59,-1.33,-1.36
163.24,-2.47,-1.06,-2.18,-0.79,0.79,0.17,0.26,-1.69,-1.39,-1.42
164.88,-2.42,-0.96,-2.13,-0.68,0.68,0.16,0.22,-1.75,-1.45,-1.47
166.53,-2.24,-0.73,-2.05,-0.55,0.55,0.15,0.19,-1.69,-1.50,-1.52
168.19,-2.05,-0.50,-1.96,-0.42,0.42,0.14,0.16,-1.63,-1.54,-1.56
169.87,-1.83,-0.24,-1.86,-0.29,0.29,0.14,0.12,-1.55,-1.57,-1.60
171.57,-1.61,0.00,-1.75,-0.15,0.15,0.13,0.09,-1.46,-1.60,-1.62
173.29,-1.37,0.25,-1.63,-0.01,0.01,0.12,0.06,-1.36,-1.62,-1.63
175.02,-1.20,0.43,-1.51,0.12,-0.12,0.11,0.02,-1.32,-1.63,-1.64
176.77,-1.20,0.44,-1.40,0.24,-0.24,0.11,-0.01,-1.45,-1.64,-1.65
178.54,-1.20,0.45,-1.30,0.35,-0.35,0.10,-0.05,-1.56,-1.65,-1.66
180.32,-1.19,0.45,-1.22,0.44,-0.44,0.09,-0.08,-1.63,-1.65,-1.65
182.13,-1.19,0.44,-1.16,0.50,-0.50,0.08,-0.11,-1.69,-1.66,-1.64
183.95,-1.18,0.46,-1.13,0.54,-0.54,0.08,-0.15,-1.72,-1.66,-1.65
185.79,-1.17,0.47,-1.11,0.56,-0.56,0.07,-0.18,-1.74,-1.67,-1.65
187.65,-1.15,0.51,-1.10,0.58,-0.58,0.06,-0.22,-1.73,-1.68,-1.67
189.52,-1.14,0.53,-1.10,0.59,-0.59,0.06,-0.25,-1.73,-1.69,-1.68
191.42,-1.13,0.56,-1.10,0.60,-0.60,0.05,-0.28,-1.74,-1.70,-1.70
193.33,-1.11,0.60,-1.10,0.62,-0.62,0.04,-0.32,-1.73,-1.72,-1.72
195.27,-1.09,0.64,-1.09,0.65,-0.65,0.03,-0.35,-1.74,-1.73,-1.74
197.22,-1.08,0.67,-1.07,0.68,-0.68,0.03,-0.38,-1.77,-1.75,-1.76
199.19,-1.07,0.70,-1.05,0.72,-0.72,0.02,-0.42,-1.80,-1.77,-1.78
201.18,-1.03,0.76,-1.03,0.76,-0.76,0.01,-0.45,-1.79,-1.79,-1.80
203.19,-0.98,0.83,-1.02,0.80,-0.80,0.01,-0.48,-1.78,-1.81,-1.82
205.23,-0.96,0.87,-1.00,0.83,-0.83,0.00,-0.52,-1.80,-1.83,-1.84
207.28,-0.96,0.88,-0.99,0.86,-0.86,-0.00,-0.55,-1.83,-1.85,-1.85
209.35,-0.96,0.90,-0.98,0.89,-0.89,-0.01,-0.58,-1.85,-1.87,-1.87
211.44,-0.96,0.93,-0.98,0.91,-0.91,-0.02,-0.61,-1.88,-1.89,-1.90
213.56,-0.97,0.93,-0.98,0.93,-0.93,-0.02,-0.65,-1.90,-1.90,-1.91
215.69,-0.97,0.94,-0.98,0.93,-0.93,-0.03,-0.68,-1.91,-1.92,-1.92
217.85,-0.97,0.95,-0.99,0.94,-0.94,-0.04,-0.71,-1.92,-1.93,-1.93
220.03,-0.98,0.95,-0.99,0.95,-0.95,-0.04,-0.74,-1.94,-1.94,-1.94
222.23,-0.98,0.98,-0.98,0.96,-0.96,-0.05,-0.76,-1.95,-1.95,-1.97
224.45,-0.98,0.97,-0.98,0.97,-0.97,-0.06,-0.79,-1.95,-1.95,-1.96
226.70,-0.98,0.97,-0.97,0.98,-0.98,-0.06,-0.82,-1.96,-1.95,-1.96
228.96,-0.98,0.96,-0.95,0.99,-0.99,-0.07,-0.84,-1.98,-1.94,-1.95
231.25,-0.97,0.96,-0.93,1.01,-1.01,-0.08,-0.87,-1.98,-1.93,-1.94
233.57,-0.96,0.96,-0.90,1.03,-1.03,-0.08,-0.89,-1.99,-1.92,-1.93
235.90,-0.95,0.96,-0.87,1.04,-1.04,-0.09,-0.91,-2.00,-1.91,-1.92
238.26,-0.83,1.07,-0.83,1.06,-1.06,-0.09,-0.93,-1.89,-1.89,-1.91
240.64,-0.73,1.14,-0.80,1.07,-1.07,-0.10,-0.95,-1.80,-1.87,-1.88
243.05,-0.71,1.13,-0.77,1.08,-1.08,-0.11,-0.96,-1.80,-1.85,-1.85
245.48,-0.69,1.13,-0.74,1.09,-1.09,-0.11,-0.98,-1.79,-1.83,-1.83
247.93,-0.66,1.13,-0.70,1.10,-1.10,-0.12,-0.99,-1.76,-1.80,-1.80
250.41,-0.64,1.13,-0.67,1.11,-1.11,-0.13,-1.00,-1.75,-1.78,-1.78
252.92,-0.62,1.12,-0.64,1.12,-1.12,-0.13,-1.01,-1.74,-1.76,-1.75
255.45,-0.61,1.11,-0.61,1.13,-1.13,-0.14,-1.02,-1.74,-1.73,-1.73
258.00,-0.60,1.10,-0.59,1.12,-1.12,-0.15,-1.02,-1.73,-1.71,-1.71
260.58,-0.60,1.08,-0.57,1.11,-1.11,-0.15,-1.03,-1.72,-1.68,-1.69
263.19,-0.60,1.05,-0.56,1.09,-1.09,-0.16,-1.03,-1.70,-1.66,-1.66
265.82,-0.60,1.03,-0.56,1.07,-1.07,-0.17,-1.03,-1.67,-1.63,-1.64
268.48,-0.53,1.08,-0.56,1.05,-1.05,-0.17,-1.03,-1.58,-1.61,-1.62
271.16,-0.51,1.07,-0.56,1.02,-1.02,-0.18,-1.03,-1.54,-1.58,-1.59
273.87,-0.51,1.05,-0.56,1.00,-1.00,-0.19,-1.03,-1.52,-1.56,-1.57
276.61,-0.51,1.02,-0.55,0.98,-0.98,-0.19,-1.03,-1.49,-1.53,-1.54
279.38,-0.51,0.99,-0.55,0.95,-0.95,-0.20,-1.02,-1.47,-1.51,-1.51
282.17,-0.60,0.88,-0.55,0.92,-0.92,-0.21,-1.02,-1.53,-1.48,-1.49
284.99,-0.62,0.82,-0.56,0.89,-0.89,-0.21,-1.01,-1.51,-1.45,-1.45
287.84,-0.59,0.83,-0.57,0.85,-0.85,-0.22,-1.01,-1.45,-1.42,-1.43
290.72,-0.58,0.81,-0.58,0.81,-0.81,-0.23,-1.00,-1.40,-1.39,-1.40
293.63,-0.57,0.79,-0.58,0.78,-0.78,-0.23,-0.99,-1.36,-1.36,-1.37
296.57,-0.56,0.77,-0.58,0.75,-0.75,-0.24,-0.99,-1.31,-1.33,-1.34
299.53,-0.55,0.75,-0.59,0.72,-0.72,-0.25,-0.98,-1.27,-1.31,-1.31
302.53,-0.53,0.75,-0.59,0.69,-0.69,-0.25,-0.97,-1.23,-1.28,-1.29
305.55,-0.60,0.64,-0.58,0.67,-0.67,-0.26,-0.97,-1.28,-1.25,-1.25
308.61,-0.64,0.58,-0.57,0.66,-0.66,-0.27,-0.96,-1.30,-1.23,-1.23
311.69,-0.61,0.58,-0.56,0.64,-0.64,-0.28,-0.95,-1.26,-1.20,-1.20
314.81,-0.60,0.57,-0.55,0.63,-0.63,-0.28,-0.95,-1.23,-1.18,-1.18
317.96,-0.55,0.60,-0.55,0.61,-0.61,-0.29,-0.94,-1.16,-1.16,-1.16
321.14,-0.47,0.67,-0.55,0.59,-0.59,-0.30,-0.93,-1.07,-1.14,-1.15
324.35,-0.47,0.65,-0.54,0.58,-0.58,-0.31,-0.93,-1.06,-1.13,-1.13
327.59,-0.50,0.61,-0.53,0.58,-0.58,-0.31,-0.92,-1.08,-1.11,-1.12
330.87,-0.50,0.60,-0.52,0.58,-0.58,-0.32,-0.92,-1.08,-1.10,-1.11
334.18,-0.51,0.57,-0.51,0.58,-0.58,-0.33,-0.92,-1.09,-1.09,-1.09
337.52,-0.51,0.56,-0.49,0.58,-0.58,-0.34,-0.91,-1.10,-1.08,-1.08
340.90,-0.51,0.55,-0.48,0.59,-0.59,-0.35,-0.91,-1.11,-1.07,-1.07
344.30,-0.51,0.54,-0.47,0.60,-0.60,-0.35,-0.91,-1.11,-1.06,-1.06
347.75,-0.51,0.54,-0.45,0.60,-0.60,-0.36,-0.91,-1.12,-1.06,-1.06
351.23,-0.44,0.60,-0.44,0.61,-0.61,-0.37,-0.91,-1.05,-1.05,-1.05
354.74,-0.36,0.69,-0.43,0.62,-0.62,-0.38,-0.91,-0.98,-1.05,-1.06
358.28,-0.37,0.67,-0.42,0.63,-0.63,-0.39,-0.91,-1.00,-1.04,-1.05
361.87,-0.39,0.65,-0.40,0.64,-0.64,-0.39,-0.91,-1.04,-1.04,-1.05
365.49,-0.39,0.64,-0.39,0.66,-0.66,-0.40,-0.92,-1.05,-1.04,-1.04
369.14,-0.39,0.65,-0.38,0.66,-0.66,-0.41,-0.92,-1.06,-1.04,-1.05
372.83,-0.38,0.66,-0.37,0.67,-0.67,-0.42,-0.93,-1.05,-1.04,-1.05
376.56,-0.37,0.68,-0.37,0.68,-0.68,-0.43,-0.93,-1.05,-1.05,-1.06
380.33,-0.30,0.74,-0.36,0.69,-0.69,-0.44,-0.94,-0.99,-1.05,-1.05
384.13,-0.30,0.74,-0.36,0.69,-0.69,-0.45,-0.94,-1.00,-1.05,-1.05
387.97,-0.35,0.70,-0.36,0.70,-0.70,-0.46,-0.95,-1.05,-1.06,-1.06
391.85,-0.36,0.70,-0.36,0.70,-0.70,-0.46,-0.96,-1.07,-1.06,-1.07
395.77,-0.35,0.70,-0.36,0.71,-0.71,-0.47,-0.97,-1.07,-1.07,-1.06
399.73,-0.39,0.67,-0.35,0.72,-0.72,-0.48,-0.98,-1.12,-1.07,-1.07
403.72,-0.45,0.61,-0.36,0.72,-0.72,-0.49,-0.98,-1.18,-1.08,-1.07
407.76,-0.37,0.71,-0.35,0.73,-0.73,-0.50,-0.99,-1.11,-1.08,-1.09
411.84,-0.28,0.80,-0.34,0.74,-0.74,-0.51,-1.00,-1.03,-1.09,-1.09
415.96,-0.26,0.82,-0.33,0.76,-0.76,-0.52,-1.01,-1.02,-1.09,-1.09
420.12,-0.26,0.82,-0.31,0.78,-0.78,-0.53,-1.03,-1.04,-1.08,-1.09
424.32,-0.26,0.82,-0.28,0.80,-0.80,-0.54,-1.04,-1.07,-1.08,-1.09
428.56,-0.25,0.82,-0.23,0.83,-0.83,-0.55,-1.05,-1.09,-1.07,-1.08
432.85,-0.23,0.83,-0.18,0.87,-0.87,-0.56,-1.06,-1.11,-1.05,-1.07
437.18,-0.20,0.85,-0.12,0.91,-0.91,-0.57,-1.07,-1.11,-1.03,-1.06
441.55,-0.20,0.81,-0.07,0.94,-0.94,-0.58,-1.08,-1.14,-1.01,-1.02
445.96,-0.07,0.91,-0.00,0.97,-0.97,-0.59,-1.09,-1.05,-0.97,-0.99
450.42,0.13,1.08,0.06,1.00,-1.00,-0.60,-1.10,-0.87,-0.94,-0.96
454.93,0.18,1.08,0.11,1.01,-1.01,-0.61,-1.11,-0.84,-0.90,-0.91
459.48,0.24,1.10,0.17,1.03,-1.03,-0.62,-1.12,-0.79,-0.85,-0.87
464.07,0.30,1.11,0.24,1.05,-1.05,-0.63,-1.13,-0.75,-0.81,-0.82
468.71,0.35,1.10,0.31,1.07,-1.07,-0.64,-1.14,-0.72,-0.76,-0.76
473.40,0.42,1.13,0.37,1.08,-1.08,-0.65,-1.14,-0.67,-0.71,-0.72
478.13,0.44,1.09,0.43,1.09,-1.09,-0.66,-1.15,-0.66,-0.66,-0.66
482.91,0.43,1.04,0.48,1.10,-1.10,-0.67,-1.16,-0.67,-0.62,-0.62
487.74,0.49,1.06,0.53,1.10,-1.10,-0.68,-1.16,-0.62,-0.58,-0.58
492.62,0.57,1.09,0.57,1.11,-1.11,-0.70,-1.17,-0.54,-0.54,-0.53
497.55,0.55,1.05,0.60,1.11,-1.11,-0.71,-1.17,-0.57,-0.51,-0.51
502.52,0.61,1.08,0.63,1.11,-1.11,-0.72,-1.17,-0.51,-0.49,-0.48
