frequency,raw,error,smoothed,error_smoothed,equalization,parametric_eq,fixed_band_eq,equalized_raw,equalized_smoothed,target
20.00,1.85,-8.13,1.86,-8.12,8.12,7.55,2.80,9.97,9.98,9.98
20.20,1.92,-8.05,1.93,-8.03,8.03,7.52,2.88,9.96,9.97,9.97
20.40,2.00,-7.96,2.01,-7.95,7.95,7.49,2.97,9.95,9.96,9.96
20.61,2.08,-7.87,2.08,-7.86,7.86,7.45,3.05,9.94,9.94,9.95
20.81,2.15,-7.77,2.15,-7.78,7.78,7.42,3.14,9.94,9.93,9.93
21.02,2.22,-7.69,2.22,-7.70,7.70,7.39,3.23,9.93,9.92,9.92
21.23,2.29,-7.61,2.28,-7.63,7.63,7.36,3.32,9.92,9.91,9.90
21.44,2.36,-7.55,2.35,-7.55,7.55,7.32,3.42,9.91,9.90,9.91
21.66,2.42,-7.47,2.41,-7.48,7.48,7.29,3.52,9.90,9.89,9.89
21.87,2.49,-7.40,2.48,-7.41,7.41,7.25,3.62,9.90,9.88,9.89
22.09,2.55,-7.32,2.54,-7.34,7.34,7.22,3.72,9.89,9.87,9.87
22.31,2.61,-7.26,2.60,-7.27,7.27,7.18,3.83,9.88,9.87,9.87
22.54,2.65,-7.21,2.65,-7.21,7.21,7.15,3.94,9.86,9.86,9.86
22.76,2.69,-7.17,2.71,-7.15,7.15,7.11,4.05,9.84,9.85,9.86
22.99,2.74,-7.10,2.76,-7.09,7.09,7.07,4.17,9.83,9.85,9.85
23.22,2.81,-7.02,2.81,-7.03,7.03,7.03,4.28,9.84,9.84,9.84
23.45,2.86,-6.98,2.86,-6.97,6.97,7.00,4.40,9.84,9.84,9.84
23.69,2.91,-6.92,2.91,-6.92,6.92,6.96,4.53,9.83,9.83,9.83
23.92,2.96,-6.86,2.96,-6.86,6.86,6.92,4.65,9.83,9.83,9.82
24.16,3.00,-6.83,3.01,-6.81,6.81,6.88,4.78,9.81,9.83,9.83
24.40,3.06,-6.77,3.06,-6.76,6.76,6.83,4.91,9.82,9.82,9.83
24.65,3.12,-6.71,3.12,-6.70,6.70,6.79,5.04,9.83,9.82,9.83
24.89,3.18,-6.64,3.17,-6.65,6.65,6.75,5.18,9.83,9.82,9.82
25.14,3.23,-6.58,3.22,-6.59,6.59,6.71,5.31,9.83,9.82,9.81
25.39,3.27,-6.54,3.27,-6.54,6.54,6.67,5.45,9.81,9.81,9.81
25.65,3.31,-6.50,3.32,-6.49,6.49,6.62,5.58,9.80,9.81,9.81
25.91,3.36,-6.45,3.37,-6.44,6.44,6.58,5.72,9.80,9.81,9.81
26.16,3.41,-6.40,3.42,-6.39,6.39,6.54,5.86,9.80,9.81,9.82
26.43,3.47,-6.34,3.47,-6.34,6.34,6.49,6.00,9.81,9.81,9.81
26.69,3.52,-6.29,3.52,-6.29,6.29,6.45,6.13,9.82,9.81,9.81
26.96,3.57,-6.24,3.56,-6.25,6.25,6.40,6.26,9.82,9.81,9.81
27.23,3.62,-6.19,3.61,-6.21,6.21,6.35,6.39,9.83,9.81,9.81
27.50,3.65,-6.15,3.65,-6.16,6.16,6.31,6.52,9.82,9.81,9.80
27.77,3.69,-6.12,3.69,-6.12,6.12,6.26,6.65,9.81,9.81,9.81
28.05,3.73,-6.08,3.73,-6.08,6.08,6.21,6.76,9.81,9.81,9.81
28.33,3.77,-6.04,3.77,-6.04,6.04,6.17,6.88,9.81,9.81,9.82
28.62,3.81,-6.00,3.81,-6.00,6.00,6.12,6.98,9.81,9.81,9.81
28.90,3.84,-5.98,3.85,-5.97,5.97,6.07,7.08,9.81,9.81,9.82
29.19,3.87,-5.95,3.88,-5.93,5.93,6.02,7.17,9.80,9.81,9.82
29.48,3.91,-5.90,3.91,-5.90,5.90,5.97,7.24,9.81,9.81,9.81
29.78,3.96,-5.85,3.95,-5.86,5.86,5.92,7.31,9.82,9.81,9.81
30.08,3.99,-5.82,3.98,-5.82,5.82,5.87,7.37,9.81,9.80,9.81
30.38,4.02,-5.77,4.02,-5.78,5.78,5.82,7.41,9.80,9.80,9.79
30.68,4.05,-5.74,4.06,-5.74,5.74,5.77,7.45,9.79,9.79,9.79
30.99,4.08,-5.70,4.09,-5.69,5.69,5.72,7.47,9.77,9.79,9.79
31.30,4.11,-5.67,4.13,-5.65,5.65,5.67,7.47,9.76,9.78,9.78
31.61,4.14,-5.64,4.17,-5.60,5.60,5.62,7.47,9.75,9.77,9.78
31.93,4.19,-5.56,4.20,-5.56,5.56,5.56,7.45,9.75,9.76,9.75
32.24,4.24,-5.52,4.24,-5.52,5.52,5.51,7.42,9.76,9.76,9.76
32.57,4.28,-5.46,4.27,-5.47,5.47,5.46,7.37,9.76,9.75,9.74
32.89,4.33,-5.41,4.31,-5.43,5.43,5.41,7.32,9.76,9.74,9.74
33.22,4.37,-5.36,4.34,-5.39,5.39,5.35,7.25,9.76,9.73,9.73
33.55,4.40,-5.33,4.38,-5.35,5.35,5.30,7.18,9.75,9.72,9.73
33.89,4.42,-5.29,4.41,-5.31,5.31,5.25,7.09,9.73,9.72,9.71
34.23,4.43,-5.27,4.44,-5.26,5.26,5.19,7.00,9.69,9.71,9.70
34.57,4.45,-5.24,4.47,-5.22,5.22,5.14,6.90,9.67,9.70,9.69
34.92,4.48,-5.19,4.51,-5.18,5.18,5.08,6.79,9.66,9.68,9.68
35.27,4.52,-5.17,4.53,-5.14,5.14,5.03,6.68,9.66,9.67,9.69
35.62,4.55,-5.11,4.56,-5.10,5.10,4.97,6.56,9.65,9.66,9.66
35.97,4.59,-5.06,4.59,-5.06,5.06,4.92,6.44,9.65,9.65,9.66
36.33,4.62,-5.02,4.61,-5.02,5.02,4.86,6.31,9.64,9.63,9.64
36.70,4.65,-4.96,4.64,-4.97,4.97,4.81,6.18,9.63,9.61,9.61
37.06,4.68,-4.91,4.66,-4.93,4.93,4.75,6.05,9.61,9.59,9.59
37.43,4.70,-4.87,4.69,-4.88,4.88,4.69,5.93,9.58,9.57,9.57
37.81,4.72,-4.83,4.72,-4.83,4.83,4.64,5.80,9.55,9.55,9.56
38.19,4.74,-4.79,4.75,-4.78,4.78,4.58,5.67,9.52,9.53,9.53
38.57,4.77,-4.74,4.78,-4.73,4.73,4.52,5.54,9.50,9.51,9.51
38.95,4.79,-4.70,4.80,-4.68,4.68,4.47,5.41,9.47,9.49,9.49
39.34,4.82,-4.64,4.83,-4.63,4.63,4.41,5.28,9.45,9.46,9.46
39.74,4.85,-4.58,4.85,-4.58,4.58,4.35,5.16,9.43,9.44,9.43
40.14,4.88,-4.53,4.88,-4.53,4.53,4.30,5.03,9.41,9.41,9.41
40.54,4.91,-4.48,4.91,-4.48,4.48,4.24,4.91,9.39,9.39,9.39
40.94,4.94,-4.42,4.94,-4.42,4.42,4.18,4.80,9.37,9.36,9.36
41.35,4.97,-4.36,4.97,-4.37,4.37,4.12,4.68,9.34,9.34,9.34
41.76,4.99,-4.31,5.00,-4.32,4.32,4.06,4.57,9.31,9.31,9.30
42.18,5.01,-4.28,5.02,-4.26,4.26,4.00,4.46,9.27,9.29,9.29
42.60,5.04,-4.22,5.05,-4.21,4.21,3.95,4.35,9.25,9.26,9.26
43.03,5.07,-4.16,5.07,-4.16,4.16,3.89,4.25,9.23,9.23,9.23
43.46,5.10,-4.10,5.10,-4.11,4.11,3.83,4.15,9.21,9.20,9.20
43.90,5.13,-4.04,5.12,-4.06,4.06,3.77,4.05,9.19,9.17,9.18
44.33,5.15,-3.99,5.13,-4.01,4.01,3.71,3.95,9.16,9.14,9.14
44.78,5.17,-3.94,5.15,-3.96,3.96,3.65,3.86,9.13,9.11,9.11
45.23,5.18,-3.91,5.16,-3.91,3.91,3.59,3.77,9.10,9.08,9.09
45.68,5.18,-3.86,5.18,-3.86,3.86,3.53,3.69,9.05,9.04,9.04
46.13,5.19,-3.81,5.19,-3.81,3.81,3.47,3.60,9.00,9.00,9.00
46.60,5.20,-3.77,5.21,-3.76,3.76,3.41,3.52,8.96,8.96,8.97
47.06,5.20,-3.73,5.22,-3.70,3.70,3.35,3.45,8.90,8.92,8.93
47.53,5.22,-3.67,5.24,-3.64,3.64,3.29,3.37,8.86,8.88,8.89
48.01,5.23,-3.60,5.25,-3.58,3.58,3.23,3.30,8.81,8.83,8.83
48.49,5.25,-3.54,5.27,-3.51,3.51,3.17,3.23,8.77,8.79,8.79
48.97,5.28,-3.45,5.30,-3.45,3.45,3.11,3.16,8.73,8.74,8.74
49.46,5.31,-3.38,5.32,-3.38,3.38,3.05,3.10,8.69,8.70,8.69
49.96,5.34,-3.29,5.35,-3.30,3.30,2.99,3.03,8.64,8.65,8.63
50.46,5.37,-3.23,5.38,-3.23,3.23,2.93,2.97,8.60,8.60,8.60
50.96,5.41,-3.14,5.40,-3.15,3.15,2.87,2.91,8.56,8.55,8.55
51.47,5.43,-3.08,5.43,-3.08,3.08,2.81,2.86,8.51,8.51,8.51
51.99,5.46,-2.99,5.45,-3.01,3.01,2.75,2.80,8.47,8.46,8.45
52.51,5.49,-2.92,5.48,-2.94,2.94,2.69,2.75,8.43,8.41,8.42
53.03,5.51,-2.87,5.50,-2.87,2.87,2.63,2.70,8.38,8.37,8.38
53.56,5.52,-2.81,5.51,-2.81,2.81,2.57,2.64,8.33,8.32,8.33
54.10,5.54,-2.73,5.52,-2.75,2.75,2.51,2.59,8.29,8.27,8.27
54.64,5.54,-2.69,5.53,-2.70,2.70,2.45,2.54,8.24,8.23,8.23
55.18,5.54,-2.64,5.53,-2.66,2.66,2.39,2.50,8.20,8.19,8.18
55.74,5.53,-2.59,5.53,-2.61,2.61,2.33,2.45,8.14,8.14,8.13
56.29,5.52,-2.57,5.52,-2.57,2.57,2.26,2.40,8.09,8.10,8.09
56.86,5.52,-2.53,5.52,-2.53,2.53,2.20,2.35,8.05,8.05,8.05
57.42,5.52,-2.47,5.52,-2.49,2.49,2.14,2.31,8.01,8.00,7.99
58.00,5.51,-2.43,5.51,-2.44,2.44,2.08,2.26,7.95,7.95,7.95
58.58,5.50,-2.41,5.51,-2.39,2.39,2.02,2.21,7.90,7.90,7.91
59.16,5.49,-2.38,5.51,-2.34,2.34,1.96,2.16,7.83,7.85,7.87
59.76,5.49,-2.33,5.51,-2.28,2.28,1.90,2.11,7.78,7.79,7.82
60.35,5.50,-2.26,5.52,-2.22,2.22,1.84,2.06,7.72,7.74,7.76
60.96,5.51,-2.18,5.53,-2.15,2.15,1.77,2.01,7.66,7.68,7.70
61.57,5.53,-2.09,5.54,-2.08,2.08,1.71,1.96,7.61,7.62,7.62
62.18,5.55,-2.01,5.56,-2.00,2.00,1.65,1.91,7.55,7.56,7.56
62.80,5.58,-1.91,5.59,-1.92,1.92,1.59,1.85,7.50,7.50,7.49
63.43,5.61,-1.81,5.61,-1.83,1.83,1.53,1.80,7.44,7.44,7.42
64.07,5.64,-1.73,5.64,-1.74,1.74,1.46,1.74,7.38,7.38,7.37
64.71,5.67,-1.64,5.67,-1.64,1.64,1.40,1.69,7.32,7.31,7.31
65.35,5.70,-1.54,5.70,-1.55,1.55,1.34,1.63,7.25,7.25,7.25
66.01,5.73,-1.45,5.73,-1.46,1.46,1.28,1.57,7.19,7.19,7.18
66.67,5.76,-1.37,5.76,-1.36,1.36,1.22,1.51,7.13,7.12,7.13
67.33,5.79,-1.26,5.78,-1.28,1.28,1.15,1.44,7.07,7.06,7.06
68.01,5.81,-1.19,5.80,-1.19,1.19,1.09,1.38,7.00,6.99,7.00
68.69,5.83,-1.10,5.82,-1.11,1.11,1.03,1.32,6.94,6.93,6.93
69.37,5.85,-1.02,5.83,-1.03,1.03,0.97,1.25,6.88,6.86,6.87
70.07,5.86,-0.94,5.84,-0.96,0.96,0.91,1.19,6.82,6.80,6.81
70.77,5.87,-0.86,5.85,-0.88,0.88,0.84,1.12,6.75,6.73,6.73
71.48,5.86,-0.81,5.86,-0.81,0.81,0.78,1.05,6.67,6.67,6.67
72.19,5.85,-0.75,5.86,-0.74,0.74,0.72,0.98,6.59,6.60,6.60
72.91,5.85,-0.67,5.86,-0.67,0.67,0.66,0.91,6.52,6.53,6.52
73.64,5.84,-0.62,5.86,-0.61,0.61,0.59,0.84,6.45,6.46,6.46
74.38,5.84,-0.55,5.85,-0.54,0.54,0.53,0.77,6.39,6.40,6.39
75.12,5.84,-0.49,5.85,-0.48,0.48,0.47,0.70,6.33,6.33,6.33
75.87,5.84,-0.43,5.85,-0.42,0.42,0.41,0.63,6.26,6.27,6.27
76.63,5.84,-0.36,5.84,-0.36,0.36,0.34,0.56,6.20,6.21,6.20
77.40,5.84,-0.30,5.84,-0.30,0.30,0.28,0.49,6.14,6.14,6.15
78.17,5.84,-0.23,5.84,-0.24,0.24,0.22,0.41,6.08,6.08,6.07
78.95,5.84,-0.19,5.84,-0.18,0.18,0.15,0.34,6.02,6.02,6.03
79.74,5.84,-0.12,5.84,-0.12,0.12,0.09,0.27,5.96,5.96,5.96
80.54,5.84,-0.06,5.84,-0.06,0.06,0.03,0.19,5.90,5.90,5.90
81.35,5.84,0.01,5.84,0.00,-0.00,-0.03,0.12,5.84,5.84,5.83
82.16,5.84,0.06,5.84,0.07,-0.07,-0.10,0.04,5.77,5.77,5.78
82.98,5.84,0.13,5.84,0.13,-0.13,-0.16,-0.03,5.71,5.71,5.71
83.81,5.84,0.19,5.84,0.19,-0.19,-0.22,-0.11,5.65,5.65,5.65
84.65,5.84,0.26,5.84,0.26,-0.26,-0.29,-0.18,5.58,5.58,5.58
85.50,5.84,0.33,5.84,0.32,-0.32,-0.35,-0.26,5.52,5.52,5.51
86.35,5.84,0.39,5.84,0.39,-0.39,-0.41,-0.34,5.45,5.45,5.45
87.22,5.84,0.46,5.84,0.46,-0.46,-0.48,-0.41,5.39,5.39,5.38
88.09,5.84,0.52,5.84,0.52,-0.52,-0.54,-0.49,5.32,5.32,5.32
88.97,5.84,0.59,5.84,0.59,-0.59,-0.60,-0.57,5.25,5.25,5.25
89.86,5.84,0.66,5.84,0.66,-0.66,-0.67,-0.65,5.18,5.18,5.18
90.76,5.84,0.73,5.84,0.73,-0.73,-0.73,-0.73,5.11,5.11,5.11
91.66,5.84,0.81,5.84,0.81,-0.81,-0.79,-0.80,5.04,5.04,5.03
92.58,5.84,0.87,5.84,0.88,-0.88,-0.86,-0.88,4.96,4.96,4.97
93.51,5.84,0.94,5.85,0.96,-0.96,-0.92,-0.96,4.89,4.89,4.90
94.44,5.84,1.01,5.85,1.03,-1.03,-0.98,-1.05,4.81,4.82,4.83
95.39,5.84,1.10,5.85,1.11,-1.11,-1.05,-1.13,4.73,4.74,4.75
96.34,5.84,1.17,5.86,1.19,-1.19,-1.11,-1.21,4.66,4.67,4.67
97.30,5.85,1.25,5.86,1.26,-1.26,-1.17,-1.29,4.59,4.60,4.60
98.28,5.86,1.35,5.86,1.33,-1.33,-1.24,-1.37,4.53,4.52,4.51
99.26,5.86,1.42,5.85,1.40,-1.40,-1.30,-1.45,4.46,4.45,4.44
100.25,5.86,1.50,5.85,1.47,-1.47,-1.37,-1.54,4.39,4.38,4.37
101.25,5.86,1.56,5.84,1.53,-1.53,-1.43,-1.62,4.33,4.31,4.30
102.27,5.84,1.61,5.83,1.59,-1.59,-1.49,-1.70,4.25,4.24,4.24
103.29,5.83,1.67,5.81,1.65,-1.65,-1.56,-1.78,4.18,4.17,4.16
104.32,5.80,1.71,5.80,1.70,-1.70,-1.62,-1.86,4.10,4.10,4.09
105.37,5.78,1.75,5.77,1.75,-1.75,-1.68,-1.94,4.04,4.03,4.03
106.42,5.75,1.79,5.75,1.79,-1.79,-1.75,-2.02,3.96,3.96,3.96
107.48,5.72,1.83,5.72,1.83,-1.83,-1.81,-2.10,3.89,3.89,3.89
108.56,5.69,1.87,5.69,1.87,-1.87,-1.87,-2.18,3.82,3.82,3.82
109.64,5.66,1.90,5.66,1.91,-1.91,-1.93,-2.26,3.75,3.75,3.76
110.74,5.63,1.95,5.63,1.95,-1.95,-2.00,-2.33,3.68,3.68,3.68
111.85,5.60,1.99,5.60,2.00,-2.00,-2.06,-2.41,3.60,3.61,3.61
112.97,5.57,2.03,5.58,2.05,-2.05,-2.12,-2.48,3.53,3.53,3.54
114.10,5.55,2.08,5.56,2.10,-2.10,-2.19,-2.54,3.46,3.46,3.47
115.24,5.52,2.14,5.54,2.15,-2.15,-2.25,-2.61,3.37,3.39,3.39
116.39,5.51,2.20,5.53,2.21,-2.21,-2.31,-2.67,3.31,3.32,3.31
117.55,5.50,2.26,5.52,2.26,-2.26,-2.37,-2.73,3.24,3.25,3.24
118.73,5.49,2.32,5.51,2.33,-2.33,-2.43,-2.79,3.16,3.18,3.17
119.92,5.50,2.39,5.51,2.39,-2.39,-2.50,-2.85,3.11,3.11,3.11
121.12,5.50,2.46,5.50,2.46,-2.46,-2.56,-2.90,3.04,3.04,3.05
122.33,5.51,2.54,5.50,2.53,-2.53,-2.62,-2.94,2.98,2.97,2.98
123.55,5.52,2.61,5.50,2.60,-2.60,-2.68,-2.99,2.92,2.91,2.92
124.79,5.52,2.67,5.51,2.67,-2.67,-2.74,-3.03,2.85,2.84,2.85
126.03,5.52,2.74,5.51,2.74,-2.74,-2.80,-3.06,2.78,2.77,2.78
127.29,5.52,2.81,5.51,2.81,-2.81,-2.86,-3.09,2.71,2.70,2.71
128.57,5.52,2.89,5.52,2.88,-2.88,-2.92,-3.12,2.64,2.64,2.64
129.85,5.52,2.95,5.52,2.95,-2.95,-2.98,-3.15,2.57,2.57,2.57
131.15,5.52,3.02,5.53,3.03,-3.03,-3.04,-3.17,2.50,2.50,2.50
132.46,5.52,3.09,5.53,3.10,-3.10,-3.10,-3.19,2.42,2.43,2.43
133.79,5.52,3.16,5.54,3.17,-3.17,-3.15,-3.21,2.35,2.37,2.36
135.12,5.52,3.22,5.54,3.24,-3.24,-3.21,-3.22,2.29,2.30,2.30
136.48,5.53,3.29,5.54,3.30,-3.30,-3.27,-3.23,2.23,2.24,2.24
137.84,5.53,3.36,5.53,3.36,-3.36,-3.33,-3.24,2.17,2.17,2.17
139.22,5.54,3.44,5.53,3.42,-3.42,-3.38,-3.25,2.12,2.11,2.10
140.61,5.54,3.49,5.52,3.48,-3.48,-3.44,-3.25,2.06,2.05,2.05
142.02,5.53,3.55,5.52,3.53,-3.53,-3.49,-3.26,2.00,1.99,1.98
143.44,5.52,3.59,5.50,3.57,-3.57,-3.55,-3.26,1.95,1.93,1.93
144.87,5.50,3.63,5.49,3.61,-3.61,-3.60,-3.27,1.89,1.87,1.87
146.32,5.48,3.67,5.47,3.65,-3.65,-3.66,-3.27,1.83,1.82,1.81
147.78,5.45,3.69,5.44,3.69,-3.69,-3.71,-3.28,1.77,1.76,1.76
149.26,5.42,3.72,5.42,3.72,-3.72,-3.76,-3.28,1.71,1.70,1.70
150.75,5.39,3.75,5.40,3.75,-3.75,-3.81,-3.29,1.65,1.65,1.65
152.26,5.36,3.76,5.37,3.77,-3.77,-3.86,-3.29,1.59,1.59,1.60
153.78,5.33,3.79,5.34,3.80,-3.80,-3.91,-3.30,1.53,1.54,1.54
155.32,5.30,3.81,5.32,3.83,-3.83,-3.96,-3.31,1.47,1.49,1.49
156.88,5.27,3.84,5.29,3.86,-3.86,-4.01,-3.32,1.41,1.43,1.44
158.44,5.25,3.88,5.27,3.89,-3.89,-4.06,-3.33,1.36,1.38,1.37
160.03,5.24,3.92,5.25,3.93,-3.93,-4.10,-3.35,1.31,1.32,1.32
161.63,5.22,3.96,5.23,3.96,-3.96,-4.15,-3.36,1.26,1.26,1.27
163.24,5.21,4.00,5.21,4.00,-4.00,-4.19,-3.38,1.21,1.21,1.21
164.88,5.19,4.04,5.19,4.04,-4.04,-4.24,-3.40,1.15,1.15,1.15
166.53,5.18,4.09,5.17,4.08,-4.08,-4.28,-3.42,1.10,1.09,1.09
168.19,5.16,4.12,5.16,4.12,-4.12,-4.32,-3.45,1.04,1.04,1.04
169.87,5.15,4.17,5.14,4.16,-4.16,-4.36,-3.48,0.99,0.98,0.98
171.57,5.13,4.21,5.12,4.20,-4.20,-4.40,-3.51,0.93,0.92,0.92
173.29,5.10,4.23,5.10,4.24,-4.24,-4.44,-3.54,0.87,0.87,0.87
175.02,5.07,4.26,5.08,4.27,-4.27,-4.47,-3.58,0.80,0.81,0.81
176.77,5.05,4.30,5.05,4.30,-4.30,-4.51,-3.62,0.75,0.75,0.75
178.54,5.03,4.33,5.02,4.33,-4.33,-4.54,-3.66,0.71,0.70,0.70
180.32,5.01,4.38,4.99,4.35,-4.35,-4.58,-3.71,0.66,0.64,0.63
182.13,4.97,4.38,4.96,4.37,-4.37,-4.61,-3.76,0.60,0.59,0.59
183.95,4.94,4.40,4.93,4.40,-4.40,-4.64,-3.81,0.54,0.53,0.54
185.79,4.90,4.43,4.90,4.42,-4.42,-4.67,-3.86,0.48,0.48,0.48
187.65,4.86,4.44,4.86,4.44,-4.44,-4.70,-3.92,0.42,0.43,0.43
189.52,4.82,4.44,4.83,4.45,-4.45,-4.72,-3.98,0.37,0.37,0.38
191.42,4.78,4.45,4.80,4.47,-4.47,-4.75,-4.04,0.31,0.32,0.33
193.33,4.75,4.47,4.76,4.49,-4.49,-4.77,-4.10,0.26,0.28,0.28
195.27,4.72,4.50,4.73,4.50,-4.50,-4.79,-4.17,0.22,0.23,0.23
197.22,4.70,4.53,4.70,4.51,-4.51,-4.81,-4.24,0.19,0.18,0.17
199.19,4.67,4.53,4.67,4.53,-4.53,-4.83,-4.31,0.15,0.14,0.14
201.18,4.65,4.57,4.64,4.54,-4.54,-4.85,-4.38,0.11,0.10,0.08
203.19,4.62,4.57,4.61,4.56,-4.56,-4.86,-4.45,0.06,0.06,0.05
205.23,4.59,4.57,4.59,4.58,-4.58,-4.88,-4.53,0.01,0.02,0.02
207.28,4.57,4.59,4.57,4.60,-4.60,-4.89,-4.60,-0.03,-0.02,-0.02
209.35,4.55,4.61,4.56,4.62,-4.62,-4.90,-4.68,-0.07,-0.06,-0.06
211.44,4.53,4.63,4.55,4.65,-4.65,-4.91,-4.75,-0.11,-0.10,-0.09
213.56,4.52,4.64,4.54,4.67,-4.67,-4.92,-4.82,-0.15,-0.13,-0.12
215.69,4.52,4.68,4.54,4.70,-4.70,-4.93,-4.90,-0.18,-0.16,-0.16
217.85,4.52,4.71,4.53,4.73,-4.73,-4.93,-4.97,-0.21,-0.19,-0.19
220.03,4.53,4.76,4.54,4.76,-4.76,-4.94,-5.04,-0.23,-0.23,-0.23
222.23,4.54,4.80,4.54,4.79,-4.79,-4.94,-5.11,-0.25,-0.25,-0.26
224.45,4.54,4.83,4.54,4.83,-4.83,-4.94,-5.17,-0.28,-0.28,-0.28
226.70,4.55,4.87,4.55,4.86,-4.86,-4.94,-5.24,-0.31,-0.31,-0.32
228.96,4.55,4.88,4.55,4.89,-4.89,-4.94,-5.29,-0.33,-0.34,-0.33
231.25,4.56,4.92,4.55,4.91,-4.91,-4.93,-5.34,-0.35,-0.36,-0.36
233.57,4.56,4.94,4.55,4.93,-4.93,-4.93,-5.39,-0.37,-0.38,-0.38
235.90,4.56,4.96,4.55,4.95,-4.95,-4.92,-5.43,-0.39,-0.40,-0.40
238.26,4.56,4.99,4.54,4.96,-4.96,-4.91,-5.47,-0.40,-0.42,-0.43
240.64,4.54,4.97,4.53,4.96,-4.96,-4.90,-5.50,-0.42,-0.43,-0.43
243.05,4.53,4.97,4.51,4.96,-4.96,-4.89,-5.52,-0.43,-0.44,-0.44
245.48,4.50,4.96,4.50,4.95,-4.95,-4.88,-5.53,-0.45,-0.46,-0.46
247.93,4.48,4.96,4.47,4.94,-4.94,-4.86,-5.54,-0.46,-0.47,-0.48
250.41,4.45,4.92,4.45,4.93,-4.93,-4.85,-5.54,-0.48,-0.47,-0.47
252.92,4.42,4.90,4.43,4.91,-4.91,-4.83,-5.53,-0.49,-0.48,-0.48
255.45,4.39,4.88,4.40,4.89,-4.89,-4.82,-5.51,-0.50,-0.49,-0.49
258.00,4.36,4.86,4.37,4.87,-4.87,-4.80,-5.49,-0.51,-0.50,-0.50
260.58,4.33,4.83,4.35,4.85,-4.85,-4.78,-5.46,-0.52,-0.50,-0.50
263.19,4.31,4.81,4.32,4.83,-4.83,-4.75,-5.42,-0.52,-0.51,-0.50
265.82,4.29,4.81,4.29,4.81,-4.81,-4.73,-5.37,-0.52,-0.52,-0.52
268.48,4.27,4.79,4.27,4.79,-4.79,-4.71,-5.32,-0.52,-0.52,-0.52
271.16,4.25,4.77,4.24,4.77,-4.77,-4.68,-5.27,-0.52,-0.53,-0.52
273.87,4.22,4.75,4.22,4.75,-4.75,-4.66,-5.20,-0.53,-0.53,-0.53
276.61,4.20,4.73,4.20,4.73,-4.73,-4.63,-5.14,-0.53,-0.54,-0.53
279.38,4.17,4.72,4.18,4.72,-4.72,-4.60,-5.07,-0.55,-0.54,-0.55
282.17,4.15,4.70,4.16,4.70,-4.70,-4.57,-4.99,-0.55,-0.54,-0.55
284.99,4.13,4.67,4.13,4.68,-4.68,-4.54,-4.92,-0.55,-0.54,-0.54
287.84,4.11,4.65,4.11,4.65,-4.65,-4.51,-4.84,-0.54,-0.54,-0.54
290.72,4.08,4.63,4.09,4.63,-4.63,-4.48,-4.75,-0.55,-0.54,-0.55
293.63,4.06,4.60,4.06,4.60,-4.60,-4.44,-4.67,-0.54,-0.54,-0.54
296.57,4.04,4.58,4.03,4.57,-4.57,-4.41,-4.59,-0.53,-0.54,-0.54
299.53,4.02,4.56,4.00,4.54,-4.54,-4.38,-4.50,-0.52,-0.54,-0.54
302.53,3.99,4.52,3.98,4.51,-4.51,-4.34,-4.42,-0.52,-0.53,-0.52
305.55,3.96,4.49,3.95,4.48,-4.48,-4.31,-4.34,-0.52,-0.53,-0.53
308.61,3.92,4.44,3.93,4.45,-4.45,-4.27,-4.25,-0.53,-0.52,-0.52
311.69,3.88,4.40,3.90,4.42,-4.42,-4.23,-4.17,-0.53,-0.52,-0.52
314.81,3.85,4.36,3.87,4.38,-4.38,-4.19,-4.09,-0.53,-0.51,-0.51
317.96,3.82,4.33,3.84,4.35,-4.35,-4.15,-4.01,-0.53,-0.51,-0.51
321.14,3.79,4.29,3.81,4.31,-4.31,-4.12,-3.93,-0.52,-0.50,-0.50
324.35,3.78,4.28,3.78,4.27,-4.27,-4.08,-3.85,-0.49,-0.49,-0.50
327.59,3.76,4.24,3.74,4.23,-4.23,-4.04,-3.78,-0.47,-0.49,-0.48
330.87,3.74,4.22,3.71,4.19,-4.19,-4.00,-3.71,-0.45,-0.48,-0.48
334.18,3.70,4.18,3.68,4.15,-4.15,-3.95,-3.64,-0.45,-0.48,-0.48
337.52,3.65,4.12,3.64,4.11,-4.11,-3.91,-3.57,-0.46,-0.47,-0.47
340.90,3.61,4.07,3.61,4.07,-4.07,-3.87,-3.50,-0.46,-0.46,-0.46
344.30,3.56,4.01,3.57,4.03,-4.03,-3.83,-3.44,-0.47,-0.46,-0.45
347.75,3.52,3.97,3.54,3.99,-3.99,-3.79,-3.38,-0.46,-0.45,-0.45
351.23,3.48,3.93,3.50,3.94,-3.94,-3.74,-3.32,-0.46,-0.44,-0.45
354.74,3.45,3.88,3.46,3.89,-3.89,-3.70,-3.27,-0.44,-0.44,-0.43
358.28,3.41,3.84,3.42,3.85,-3.85,-3.66,-3.22,-0.44,-0.43,-0.43
361.87,3.38,3.81,3.38,3.80,-3.80,-3.61,-3.17,-0.42,-0.42,-0.42
365.49,3.35,3.77,3.34,3.75,-3.75,-3.57,-3.12,-0.40,-0.42,-0.42
369.14,3.31,3.71,3.30,3.71,-3.71,-3.53,-3.07,-0.40,-0.41,-0.40
372.83,3.27,3.67,3.26,3.67,-3.67,-3.48,-3.03,-0.39,-0.40,-0.40
376.56,3.22,3.62,3.23,3.62,-3.62,-3.44,-2.99,-0.40,-0.39,-0.40
380.33,3.18,3.57,3.19,3.58,-3.58,-3.39,-2.95,-0.39,-0.38,-0.39
384.13,3.14,3.52,3.15,3.53,-3.53,-3.35,-2.92,-0.39,-0.38,-0.38
387.97,3.11,3.48,3.12,3.48,-3.48,-3.30,-2.89,-0.37,-0.37,-0.37
391.85,3.08,3.44,3.08,3.44,-3.44,-3.26,-2.85,-0.35,-0.36,-0.36
395.77,3.04,3.40,3.04,3.39,-3.39,-3.22,-2.82,-0.35,-0.35,-0.35
399.73,3.01,3.36,3.00,3.34,-3.34,-3.17,-2.80,-0.33,-0.34,-0.35
403.72,2.97,3.29,2.96,3.29,-3.29,-3.13,-2.77,-0.32,-0.33,-0.32
407.76,2.93,3.25,2.93,3.25,-3.25,-3.08,-2.75,-0.32,-0.32,-0.32
411.84,2.88,3.20,2.89,3.20,-3.20,-3.04,-2.73,-0.32,-0.31,-0.31
415.96,2.84,3.14,2.85,3.16,-3.16,-2.99,-2.70,-0.32,-0.30,-0.30
420.12,2.81,3.11,2.82,3.11,-3.11,-2.95,-2.68,-0.30,-0.30,-0.30
424.32,2.77,3.06,2.78,3.07,-3.07,-2.90,-2.67,-0.29,-0.29,-0.29
428.56,2.74,3.01,2.74,3.02,-3.02,-2.86,-2.65,-0.28,-0.28,-0.27
432.85,2.71,2.98,2.70,2.97,-2.97,-2.81,-2.63,-0.26,-0.27,-0.26
437.18,2.67,2.94,2.67,2.93,-2.93,-2.77,-2.61,-0.26,-0.26,-0.27
441.55,2.63,2.89,2.63,2.88,-2.88,-2.73,-2.60,-0.25,-0.25,-0.26
445.96,2.59,2.84,2.59,2.84,-2.84,-2.68,-2.58,-0.25,-0.25,-0.25
450.42,2.55,2.79,2.55,2.79,-2.79,-2.64,-2.56,-0.24,-0.24,-0.24
454.93,2.51,2.74,2.52,2.74,-2.74,-2.59,-2.55,-0.23,-0.23,-0.23
459.48,2.48,2.71,2.48,2.70,-2.70,-2.55,-2.53,-0.22,-0.22,-0.22
464.07,2.44,2.65,2.44,2.65,-2.65,-2.50,-2.51,-0.21,-0.21,-0.21
468.71,2.40,2.60,2.40,2.60,-2.60,-2.46,-2.49,-0.20,-0.20,-0.20
473.40,2.36,2.55,2.36,2.55,-2.55,-2.42,-2.47,-0.19,-0.19,-0.19
478.13,2.32,2.50,2.32,2.50,-2.50,-2.37,-2.45,-0.18,-0.18,-0.18
482.91,2.28,2.45,2.28,2.45,-2.45,-2.33,-2.43,-0.17,-0.17,-0.17
487.74,2.23,2.39,2.24,2.40,-2.40,-2.29,-2.41,-0.17,-0.16,-0.16
492.62,2.18,2.34,2.20,2.35,-2.35,-2.24,-2.38,-0.17,-0.15,-0.15
497.55,2.15,2.30,2.16,2.30,-2.30,-2.20,-2.36,-0.15,-0.14,-0.15
502.52,2.11,2.25,2.12,2.25,-2.25,-2.16,-2.33,-0.14,-0.13,-0.14
507.55,2.08,2.20,2.08,2.20,-2.20,-2.12,-2.30,-0.12,-0.12,-0.12
512.62,2.05,2.16,2.04,2.15,-2.15,-2.07,-2.27,-0.10,-0.11,-0.11
517.75,2.01,2.10,2.01,2.10,-2.10,-2.03,-2.24,-0.09,-0.09,-0.09
522.93,1.98,2.06,1.97,2.06,-2.06,-1.99,-2.21,-0.08,-0.08,-0.08
528.16,1.94,2.01,1.94,2.01,-2.01,-1.95,-2.17,-0.07,-0.07,-0.07
533.44,1.89,1.95,1.91,1.96,-1.96,-1.90,-2.13,-0.07,-0.06,-0.06
