frequency,raw,error,smoothed,error_smoothed,equalization,parametric_eq,fixed_band_eq,equalized_raw,equalized_smoothed,target
20.00,-10.52,-16.77,-10.52,-16.77,16.76,15.39,6.41,6.24,6.24,6.25
20.20,-10.41,-16.71,-10.41,-16.71,16.71,15.57,6.56,6.30,6.30,6.30
20.40,-10.29,-16.64,-10.30,-16.64,16.64,15.73,6.72,6.36,6.35,6.35
20.61,-10.18,-16.56,-10.18,-16.57,16.57,15.87,6.87,6.39,6.39,6.38
20.81,-10.06,-16.49,-10.06,-16.49,16.49,15.99,7.03,6.43,6.43,6.43
21.02,-9.95,-16.42,-9.94,-16.40,16.40,16.10,7.20,6.45,6.46,6.47
21.23,-9.81,-16.30,-9.81,-16.30,16.30,16.18,7.37,6.49,6.49,6.49
21.44,-9.68,-16.19,-9.68,-16.19,16.19,16.24,7.54,6.51,6.51,6.51
21.66,-9.55,-16.08,-9.55,-16.08,16.07,16.28,7.72,6.52,6.52,6.53
21.87,-9.42,-15.96,-9.41,-15.96,15.93,16.29,7.90,6.51,6.52,6.54
22.09,-9.27,-15.83,-9.26,-15.82,15.79,16.28,8.09,6.52,6.52,6.56
22.31,-9.10,-15.66,-9.10,-15.67,15.64,16.25,8.28,6.54,6.54,6.57
22.54,-8.93,-15.50,-8.93,-15.49,15.50,16.19,8.48,6.57,6.58,6.57
22.76,-8.77,-15.34,-8.76,-15.33,15.37,16.12,8.68,6.60,6.61,6.57
22.99,-8.60,-15.16,-8.63,-15.19,15.25,16.03,8.89,6.65,6.63,6.56
23.22,-8.53,-15.09,-8.53,-15.09,15.14,15.92,9.11,6.61,6.61,6.56
23.45,-8.47,-15.03,-8.47,-15.02,15.04,15.80,9.33,6.57,6.58,6.56
23.69,-8.41,-14.98,-8.41,-14.98,14.95,15.66,9.55,6.53,6.53,6.57
23.92,-8.35,-14.92,-8.34,-14.90,14.85,15.51,9.79,6.50,6.52,6.57
24.16,-8.24,-14.81,-8.23,-14.81,14.76,15.36,10.03,6.52,6.53,6.57
24.40,-8.11,-14.69,-8.12,-14.69,14.67,15.20,10.27,6.56,6.55,6.58
24.65,-7.98,-14.55,-7.98,-14.55,14.56,15.03,10.52,6.58,6.58,6.57
24.89,-7.86,-14.43,-7.85,-14.42,14.44,14.86,10.78,6.58,6.59,6.57
25.14,-7.73,-14.30,-7.73,-14.30,14.32,14.69,11.05,6.59,6.59,6.57
25.39,-7.61,-14.19,-7.61,-14.18,14.19,14.51,11.32,6.59,6.59,6.58
25.65,-7.49,-14.07,-7.49,-14.06,14.07,14.34,11.59,6.58,6.58,6.58
25.91,-7.37,-13.94,-7.37,-13.94,13.95,14.17,11.87,6.58,6.58,6.57
26.16,-7.25,-13.82,-7.25,-13.82,13.82,13.99,12.16,6.57,6.57,6.57
26.43,-7.12,-13.69,-7.13,-13.70,13.67,13.82,12.45,6.55,6.54,6.57
26.69,-7.00,-13.57,-7.00,-13.57,13.52,13.66,12.75,6.52,6.51,6.57
26.96,-6.87,-13.44,-6.86,-13.43,13.36,13.49,13.05,6.49,6.50,6.57
27.23,-6.69,-13.26,-6.69,-13.25,13.21,13.33,13.35,6.52,6.53,6.57
27.50,-6.49,-13.06,-6.48,-13.04,13.09,13.18,13.65,6.60,6.61,6.57
27.77,-6.30,-12.86,-6.30,-12.86,12.98,13.02,13.95,6.68,6.67,6.56
28.05,-6.14,-12.70,-6.19,-12.75,12.88,12.88,14.24,6.74,6.69,6.56
28.33,-6.17,-12.72,-6.17,-12.72,12.79,12.73,14.53,6.62,6.62,6.55
28.62,-6.19,-12.74,-6.18,-12.73,12.70,12.60,14.81,6.51,6.52,6.55
28.90,-6.21,-12.77,-6.18,-12.73,12.62,12.46,15.07,6.41,6.44,6.56
29.19,-6.10,-12.65,-6.09,-12.64,12.52,12.34,15.32,6.42,6.43,6.55
29.48,-5.93,-12.49,-5.94,-12.49,12.41,12.21,15.54,6.49,6.47,6.56
29.78,-5.75,-12.30,-5.76,-12.31,12.29,12.09,15.74,6.54,6.53,6.55
30.08,-5.58,-12.14,-5.58,-12.14,12.16,11.98,15.91,6.58,6.57,6.56
30.38,-5.42,-11.97,-5.41,-11.96,12.02,11.87,16.04,6.60,6.61,6.55
30.68,-5.26,-11.81,-5.26,-11.81,11.88,11.77,16.14,6.62,6.63,6.55
30.99,-5.11,-11.66,-5.14,-11.68,11.77,11.67,16.19,6.65,6.62,6.55
31.30,-5.07,-11.61,-5.07,-11.62,11.66,11.57,16.20,6.59,6.59,6.54
31.61,-5.04,-11.58,-5.04,-11.57,11.57,11.48,16.16,6.53,6.54,6.54
31.93,-5.01,-11.55,-4.99,-11.52,11.47,11.40,16.09,6.46,6.48,6.54
32.24,-4.91,-11.44,-4.91,-11.44,11.36,11.31,15.97,6.45,6.45,6.53
32.57,-4.78,-11.31,-4.80,-11.32,11.23,11.23,15.82,6.45,6.43,6.53
32.89,-4.66,-11.19,-4.64,-11.17,11.09,11.16,15.64,6.43,6.45,6.53
33.22,-4.47,-10.99,-4.45,-10.97,10.95,11.08,15.43,6.48,6.51,6.52
33.55,-4.25,-10.76,-4.24,-10.75,10.82,11.01,15.19,6.58,6.58,6.52
33.89,-4.02,-10.53,-4.07,-10.57,10.71,10.94,14.94,6.69,6.64,6.51
34.23,-3.95,-10.46,-3.97,-10.48,10.61,10.88,14.67,6.66,6.64,6.51
34.57,-3.96,-10.46,-3.94,-10.44,10.51,10.81,14.39,6.55,6.57,6.50
34.92,-3.96,-10.46,-3.94,-10.44,10.41,10.75,14.11,6.45,6.47,6.50
35.27,-3.92,-10.41,-3.94,-10.43,10.30,10.68,13.81,6.38,6.36,6.49
35.62,-3.87,-10.36,-3.89,-10.38,10.19,10.62,13.52,6.32,6.31,6.49
35.97,-3.82,-10.30,-3.75,-10.23,10.10,10.55,13.23,6.28,6.35,6.49
36.33,-3.54,-10.02,-3.50,-9.99,10.00,10.49,12.94,6.47,6.50,6.49
36.70,-3.23,-9.71,-3.26,-9.74,9.91,10.42,12.65,6.67,6.65,6.48
37.06,-3.00,-9.48,-3.11,-9.59,9.81,10.35,12.36,6.80,6.70,6.48
37.43,-3.11,-9.60,-3.11,-9.59,9.70,10.28,12.08,6.59,6.59,6.49
37.81,-3.22,-9.71,-3.16,-9.64,9.60,10.21,11.81,6.38,6.44,6.49
38.19,-3.21,-9.69,-3.18,-9.66,9.51,10.13,11.54,6.30,6.33,6.48
38.57,-3.06,-9.55,-3.08,-9.57,9.44,10.05,11.27,6.38,6.36,6.49
38.95,-2.92,-9.42,-2.92,-9.41,9.38,9.97,11.02,6.46,6.45,6.50
39.34,-2.76,-9.25,-2.75,-9.24,9.30,9.88,10.77,6.54,6.55,6.49
39.74,-2.60,-9.09,-2.61,-9.10,9.18,9.79,10.52,6.58,6.57,6.49
40.14,-2.48,-8.97,-2.53,-9.01,9.03,9.69,10.28,6.55,6.51,6.49
40.54,-2.46,-8.95,-2.46,-8.95,8.88,9.59,10.05,6.42,6.41,6.49
40.94,-2.43,-8.91,-2.35,-8.83,8.74,9.49,9.83,6.31,6.39,6.48
41.35,-2.21,-8.69,-2.19,-8.66,8.64,9.38,9.61,6.43,6.46,6.48
41.76,-1.95,-8.42,-2.00,-8.47,8.57,9.26,9.40,6.62,6.57,6.47
42.18,-1.83,-8.30,-1.87,-8.34,8.49,9.15,9.19,6.66,6.62,6.47
42.60,-1.87,-8.33,-1.85,-8.31,8.42,9.02,8.99,6.55,6.57,6.46
43.03,-1.91,-8.36,-1.93,-8.38,8.34,8.90,8.80,6.43,6.41,6.45
43.46,-1.97,-8.41,-1.99,-8.42,8.26,8.77,8.61,6.29,6.27,6.44
43.90,-2.03,-8.45,-1.93,-8.35,8.20,8.63,8.43,6.17,6.26,6.42
44.33,-1.82,-8.21,-1.78,-8.18,8.13,8.49,8.25,6.31,6.35,6.40
44.78,-1.53,-7.91,-1.62,-8.00,8.06,8.35,8.08,6.53,6.44,6.38
45.23,-1.46,-7.83,-1.54,-7.91,8.00,8.21,7.91,6.54,6.45,6.37
45.68,-1.60,-7.96,-1.55,-7.90,7.95,8.07,7.75,6.35,6.40,6.36
46.13,-1.64,-7.98,-1.51,-7.86,7.91,7.92,7.59,6.27,6.40,6.34
46.60,-1.44,-7.78,-1.46,-7.79,7.89,7.78,7.44,6.45,6.43,6.34
47.06,-1.31,-7.63,-1.49,-7.81,7.88,7.63,7.29,6.56,6.38,6.32
47.53,-1.59,-7.90,-1.58,-7.90,7.86,7.48,7.14,6.27,6.27,6.31
48.01,-1.86,-8.17,-1.68,-7.98,7.83,7.33,7.00,5.97,6.15,6.31
48.49,-1.66,-7.95,-1.68,-7.97,7.78,7.18,6.87,6.12,6.10,6.29
48.97,-1.46,-7.73,-1.51,-7.78,7.72,7.04,6.74,6.26,6.21,6.27
49.46,-1.32,-7.57,-1.31,-7.56,7.66,6.89,6.61,6.34,6.35,6.25
49.96,-1.17,-7.40,-1.20,-7.43,7.57,6.74,6.48,6.40,6.38,6.23
50.46,-1.13,-7.35,-1.13,-7.35,7.46,6.60,6.36,6.33,6.33,6.22
50.96,-1.10,-7.31,-1.11,-7.31,7.31,6.46,6.25,6.21,6.21,6.21
51.47,-1.06,-7.25,-1.07,-7.26,7.16,6.31,6.13,6.10,6.09,6.19
51.99,-1.02,-7.20,-0.96,-7.14,7.01,6.17,6.02,5.99,6.05,6.18
52.51,-0.77,-6.94,-0.78,-6.95,6.87,6.04,5.91,6.09,6.09,6.17
53.03,-0.52,-6.69,-0.55,-6.71,6.72,5.90,5.81,6.20,6.17,6.17
53.56,-0.33,-6.48,-0.33,-6.48,6.55,5.77,5.70,6.22,6.23,6.15
54.10,-0.15,-6.29,-0.16,-6.30,6.39,5.63,5.60,6.23,6.22,6.14
54.64,-0.04,-6.16,-0.04,-6.16,6.22,5.50,5.50,6.18,6.18,6.12
55.18,0.06,-6.06,0.06,-6.05,6.07,5.38,5.41,6.13,6.12,6.12
55.74,0.14,-5.96,0.15,-5.95,5.93,5.25,5.31,6.07,6.08,6.10
56.29,0.24,-5.85,0.26,-5.83,5.80,5.13,5.22,6.04,6.06,6.09
56.86,0.38,-5.70,0.36,-5.71,5.68,5.01,5.13,6.06,6.04,6.08
57.42,0.48,-5.57,0.47,-5.59,5.56,4.89,5.03,6.04,6.02,6.05
58.00,0.55,-5.49,0.58,-5.46,5.44,4.78,4.95,5.99,6.01,6.04
58.58,0.70,-5.33,0.71,-5.31,5.33,4.66,4.86,6.03,6.04,6.03
59.16,0.85,-5.16,0.86,-5.15,5.22,4.55,4.77,6.07,6.08,6.01
59.76,1.01,-4.98,0.96,-5.03,5.09,4.45,4.68,6.10,6.05,5.99
60.35,1.03,-4.92,1.00,-4.95,4.97,4.34,4.60,6.00,5.98,5.95
60.96,0.96,-4.95,1.03,-4.88,4.84,4.24,4.51,5.80,5.87,5.91
61.57,1.07,-4.80,1.05,-4.82,4.70,4.14,4.43,5.77,5.75,5.87
62.18,1.17,-4.66,1.13,-4.69,4.58,4.04,4.34,5.75,5.71,5.83
62.80,1.24,-4.54,1.37,-4.41,4.45,3.94,4.26,5.69,5.82,5.78
63.43,1.52,-4.22,1.51,-4.22,4.31,3.85,4.17,5.83,5.82,5.74
64.07,1.83,-3.86,1.55,-4.14,4.18,3.75,4.09,6.01,5.73,5.69
64.71,1.45,-4.20,1.68,-3.97,4.06,3.66,4.01,5.51,5.74,5.65
65.35,1.54,-4.06,1.69,-3.91,3.93,3.57,3.92,5.47,5.62,5.61
66.01,2.02,-3.54,1.64,-3.92,3.80,3.49,3.84,5.82,5.44,5.56
66.67,1.62,-3.89,1.83,-3.68,3.68,3.40,3.76,5.30,5.51,5.51
67.33,1.69,-3.76,1.88,-3.58,3.57,3.32,3.67,5.27,5.45,5.46
68.01,2.23,-3.19,1.83,-3.58,3.47,3.24,3.59,5.70,5.30,5.42
68.69,1.81,-3.56,2.00,-3.37,3.38,3.16,3.51,5.19,5.37,5.37
69.37,1.91,-3.40,2.12,-3.19,3.29,3.08,3.43,5.21,5.42,5.32
70.07,2.38,-2.89,2.16,-3.11,3.20,3.01,3.34,5.58,5.36,5.27
70.77,2.29,-2.93,2.21,-3.01,3.11,2.93,3.26,5.40,5.32,5.22
71.48,2.05,-3.12,2.09,-3.07,3.04,2.86,3.18,5.09,5.12,5.17
72.19,1.86,-3.24,1.99,-3.11,2.96,2.79,3.10,4.82,4.95,5.10
72.91,1.99,-3.05,2.09,-2.95,2.88,2.72,3.02,4.87,4.97,5.04
73.64,2.37,-2.62,2.18,-2.80,2.81,2.65,2.94,5.18,4.99,4.99
74.38,2.36,-2.57,2.26,-2.67,2.73,2.59,2.86,5.09,4.99,4.93
75.12,2.06,-2.81,2.28,-2.59,2.63,2.52,2.78,4.69,4.91,4.87
75.87,2.30,-2.51,2.27,-2.54,2.51,2.46,2.71,4.82,4.78,4.81
76.63,2.40,-2.36,2.33,-2.42,2.39,2.39,2.63,4.79,4.72,4.76
77.40,2.43,-2.28,2.44,-2.26,2.27,2.33,2.55,4.70,4.72,4.71
78.17,2.45,-2.20,2.48,-2.18,2.17,2.27,2.48,4.62,4.65,4.65
78.95,2.53,-2.08,2.52,-2.08,2.07,2.21,2.40,4.60,4.59,4.61
79.74,2.58,-1.98,2.58,-1.98,1.98,2.15,2.33,4.56,4.56,4.56
80.54,2.62,-1.89,2.62,-1.89,1.91,2.10,2.25,4.53,4.53,4.51
81.35,2.63,-1.83,2.63,-1.83,1.86,2.04,2.18,4.49,4.49,4.46
82.16,2.63,-1.78,2.65,-1.76,1.83,1.98,2.11,4.46,4.48,4.41
82.98,2.63,-1.74,2.63,-1.73,1.80,1.93,2.04,4.43,4.43,4.37
83.81,2.63,-1.69,2.55,-1.76,1.75,1.87,1.97,4.38,4.31,4.32
84.65,2.45,-1.82,2.46,-1.81,1.70,1.82,1.90,4.15,4.16,4.27
85.50,2.35,-1.88,2.45,-1.78,1.64,1.77,1.83,3.99,4.09,4.23
86.35,2.48,-1.70,2.51,-1.67,1.58,1.71,1.76,4.06,4.09,4.18
87.22,2.73,-1.40,2.63,-1.50,1.52,1.66,1.69,4.25,4.15,4.13
88.09,2.73,-1.35,2.73,-1.34,1.46,1.61,1.63,4.19,4.20,4.08
88.97,2.73,-1.29,2.77,-1.25,1.40,1.56,1.56,4.13,4.16,4.02
89.86,2.73,-1.24,2.72,-1.25,1.31,1.51,1.50,4.04,4.03,3.97
90.76,2.71,-1.21,2.65,-1.27,1.23,1.46,1.43,3.94,3.88,3.92
91.66,2.55,-1.32,2.59,-1.27,1.16,1.41,1.37,3.71,3.75,3.87
92.58,2.53,-1.28,2.61,-1.20,1.09,1.36,1.30,3.62,3.70,3.81
93.51,2.71,-1.05,2.68,-1.08,1.03,1.31,1.24,3.74,3.71,3.76
94.44,2.84,-0.88,2.79,-0.93,0.97,1.26,1.18,3.81,3.76,3.72
95.39,2.84,-0.83,2.85,-0.82,0.90,1.22,1.12,3.74,3.75,3.67
96.34,2.83,-0.79,2.85,-0.77,0.83,1.17,1.06,3.66,3.68,3.62
97.30,2.83,-0.74,2.83,-0.74,0.76,1.12,1.00,3.59,3.59,3.57
98.28,2.82,-0.70,2.82,-0.70,0.70,1.07,0.94,3.52,3.52,3.52
99.26,2.80,-0.68,2.80,-0.67,0.64,1.03,0.88,3.44,3.44,3.48
100.25,2.78,-0.65,2.78,-0.65,0.60,0.98,0.82,3.38,3.37,3.43
101.25,2.76,-0.62,2.76,-0.62,0.56,0.93,0.76,3.32,3.32,3.38
102.27,2.76,-0.57,2.78,-0.55,0.53,0.89,0.71,3.29,3.30,3.33
103.29,2.80,-0.48,2.83,-0.45,0.50,0.84,0.65,3.30,3.33,3.28
104.32,2.87,-0.37,2.84,-0.39,0.48,0.79,0.60,3.35,3.32,3.24
105.37,2.86,-0.33,2.79,-0.39,0.47,0.75,0.54,3.33,3.26,3.19
106.42,2.65,-0.49,2.69,-0.44,0.46,0.70,0.49,3.11,3.16,3.14
107.48,2.55,-0.53,2.58,-0.50,0.46,0.66,0.44,3.01,3.04,3.08
108.56,2.52,-0.51,2.51,-0.52,0.45,0.61,0.39,2.97,2.95,3.03
109.64,2.50,-0.48,2.50,-0.48,0.42,0.57,0.34,2.92,2.92,2.98
110.74,2.49,-0.43,2.48,-0.44,0.39,0.52,0.30,2.88,2.87,2.92
111.85,2.47,-0.41,2.46,-0.41,0.36,0.48,0.25,2.83,2.82,2.88
112.97,2.46,-0.36,2.50,-0.32,0.33,0.44,0.21,2.79,2.84,2.82
114.10,2.51,-0.26,2.53,-0.24,0.31,0.39,0.17,2.82,2.84,2.77
115.24,2.63,-0.09,2.53,-0.19,0.30,0.35,0.13,2.93,2.82,2.72
116.39,2.45,-0.22,2.49,-0.17,0.28,0.31,0.10,2.73,2.78,2.67
117.55,2.35,-0.28,2.36,-0.26,0.27,0.27,0.06,2.62,2.63,2.63
118.73,2.29,-0.30,2.20,-0.39,0.25,0.23,0.03,2.54,2.46,2.59
119.92,2.06,-0.50,2.17,-0.39,0.25,0.20,0.00,2.31,2.41,2.56
121.12,2.14,-0.38,2.21,-0.31,0.25,0.16,-0.02,2.39,2.46,2.52
122.33,2.37,-0.12,2.27,-0.22,0.25,0.13,-0.05,2.62,2.52,2.49
123.55,2.39,-0.07,2.33,-0.13,0.25,0.10,-0.07,2.64,2.58,2.46
124.79,2.22,-0.21,2.29,-0.14,0.24,0.07,-0.09,2.46,2.53,2.43
126.03,2.20,-0.20,2.20,-0.20,0.21,0.04,-0.10,2.41,2.41,2.40
127.29,2.14,-0.24,2.12,-0.25,0.19,0.01,-0.12,2.33,2.31,2.38
128.57,2.09,-0.25,2.08,-0.26,0.18,-0.01,-0.13,2.27,2.25,2.34
129.85,2.03,-0.28,2.05,-0.26,0.18,-0.03,-0.13,2.21,2.23,2.31
131.15,2.04,-0.24,2.10,-0.18,0.19,-0.05,-0.14,2.23,2.29,2.28
132.46,2.17,-0.08,2.12,-0.12,0.18,-0.06,-0.14,2.35,2.31,2.25
133.79,2.20,-0.02,2.11,-0.11,0.17,-0.07,-0.14,2.37,2.28,2.22
135.12,1.99,-0.20,2.06,-0.13,0.16,-0.08,-0.14,2.15,2.21,2.19
136.48,1.95,-0.22,1.98,-0.18,0.15,-0.09,-0.14,2.10,2.13,2.17
137.84,1.94,-0.19,1.93,-0.20,0.17,-0.09,-0.13,2.11,2.10,2.13
139.22,1.95,-0.15,1.94,-0.16,0.18,-0.09,-0.12,2.13,2.12,2.10
140.61,1.92,-0.15,1.90,-0.17,0.19,-0.09,-0.11,2.11,2.10,2.07
142.02,1.85,-0.20,1.85,-0.19,0.19,-0.09,-0.10,2.04,2.04,2.05
143.44,1.78,-0.24,1.79,-0.22,0.18,-0.08,-0.09,1.96,1.97,2.02
144.87,1.75,-0.23,1.75,-0.23,0.17,-0.07,-0.07,1.92,1.92,1.98
146.32,1.75,-0.19,1.76,-0.18,0.16,-0.06,-0.06,1.91,1.92,1.94
147.78,1.77,-0.14,1.81,-0.09,0.14,-0.05,-0.04,1.91,1.95,1.91
149.26,1.87,0.01,1.83,-0.03,0.12,-0.03,-0.03,1.99,1.95,1.86
150.75,1.82,0.02,1.75,-0.05,0.08,-0.02,-0.01,1.90,1.83,1.80
152.26,1.63,-0.10,1.63,-0.10,0.04,-0.00,0.01,1.67,1.67,1.73
153.78,1.42,-0.24,1.57,-0.09,0.00,0.02,0.03,1.43,1.57,1.66
155.32,1.57,-0.02,1.56,-0.02,-0.02,0.04,0.05,1.55,1.54,1.59
156.88,1.72,0.21,1.58,0.08,-0.04,0.06,0.07,1.68,1.54,1.51
158.44,1.53,0.10,1.58,0.15,-0.05,0.08,0.09,1.48,1.52,1.43
160.03,1.45,0.10,1.48,0.13,-0.08,0.10,0.11,1.37,1.40,1.35
161.63,1.38,0.10,1.37,0.09,-0.12,0.12,0.14,1.26,1.25,1.28
163.24,1.32,0.10,1.31,0.09,-0.14,0.14,0.16,1.18,1.17,1.22
164.88,1.25,0.08,1.26,0.09,-0.15,0.16,0.18,1.10,1.11,1.17
166.53,1.23,0.11,1.24,0.12,-0.14,0.18,0.20,1.09,1.10,1.12
168.19,1.23,0.15,1.27,0.19,-0.13,0.21,0.22,1.10,1.13,1.08
169.87,1.29,0.25,1.24,0.20,-0.13,0.23,0.25,1.16,1.11,1.04
171.57,1.24,0.22,1.16,0.14,-0.13,0.25,0.27,1.11,1.03,1.02
173.29,0.99,-0.02,1.06,0.06,-0.11,0.27,0.29,0.88,0.95,1.01
175.02,0.94,-0.06,1.01,0.02,-0.07,0.29,0.32,0.87,0.95,1.00
176.77,1.04,0.05,1.02,0.04,-0.02,0.31,0.34,1.02,1.01,0.99
178.54,1.13,0.15,1.06,0.07,0.03,0.34,0.36,1.16,1.09,0.98
180.32,1.00,0.01,0.98,-0.01,0.07,0.36,0.38,1.07,1.05,0.99
182.13,0.84,-0.16,0.83,-0.16,0.09,0.38,0.41,0.93,0.92,1.00
183.95,0.66,-0.33,0.76,-0.23,0.11,0.40,0.43,0.77,0.86,0.99
185.79,0.74,-0.25,0.79,-0.20,0.12,0.42,0.45,0.86,0.91,0.99
187.65,0.96,-0.01,0.85,-0.13,0.14,0.44,0.48,1.10,0.99,0.97
189.52,0.91,-0.05,0.89,-0.07,0.16,0.46,0.50,1.07,1.05,0.96
191.42,0.80,-0.14,0.86,-0.08,0.16,0.47,0.52,0.96,1.02,0.94
193.33,0.78,-0.14,0.77,-0.15,0.15,0.49,0.55,0.93,0.92,0.92
195.27,0.73,-0.17,0.72,-0.18,0.13,0.51,0.57,0.86,0.85,0.90
197.22,0.68,-0.20,0.68,-0.20,0.14,0.53,0.59,0.82,0.81,0.88
199.19,0.64,-0.22,0.65,-0.21,0.17,0.55,0.62,0.81,0.82,0.86
201.18,0.63,-0.21,0.68,-0.15,0.20,0.57,0.64,0.83,0.88,0.84
203.19,0.71,-0.11,0.69,-0.13,0.22,0.58,0.66,0.93,0.91,0.82
205.23,0.73,-0.07,0.62,-0.18,0.23,0.60,0.69,0.96,0.85,0.80
207.28,0.48,-0.31,0.51,-0.27,0.23,0.62,0.71,0.71,0.74,0.79
209.35,0.32,-0.45,0.41,-0.35,0.24,0.63,0.73,0.56,0.65,0.77
211.44,0.40,-0.34,0.41,-0.34,0.26,0.65,0.76,0.66,0.67,0.74
213.56,0.49,-0.24,0.47,-0.26,0.29,0.67,0.78,0.78,0.76,0.73
215.69,0.56,-0.16,0.49,-0.23,0.33,0.68,0.80,0.89,0.82,0.72
217.85,0.40,-0.31,0.43,-0.28,0.36,0.70,0.82,0.76,0.79,0.71
220.03,0.30,-0.40,0.33,-0.37,0.39,0.71,0.85,0.69,0.71,0.70
222.23,0.23,-0.44,0.22,-0.46,0.41,0.73,0.87,0.64,0.63,0.67
224.45,0.16,-0.52,0.15,-0.52,0.44,0.74,0.89,0.60,0.59,0.68
226.70,0.11,-0.57,0.14,-0.54,0.49,0.76,0.91,0.60,0.62,0.68
228.96,0.12,-0.57,0.15,-0.54,0.54,0.78,0.93,0.66,0.69,0.69
231.25,0.21,-0.49,0.15,-0.54,0.58,0.79,0.95,0.79,0.73,0.70
233.57,0.16,-0.55,0.14,-0.56,0.62,0.81,0.97,0.78,0.76,0.71
235.90,0.05,-0.67,0.10,-0.61,0.65,0.82,0.99,0.70,0.75,0.72
238.26,0.06,-0.67,0.04,-0.69,0.68,0.84,1.01,0.74,0.73,0.73
240.64,0.01,-0.75,-0.01,-0.76,0.72,0.85,1.03,0.73,0.72,0.76
243.05,-0.03,-0.82,-0.02,-0.81,0.77,0.86,1.04,0.74,0.75,0.79
245.48,-0.07,-0.88,-0.02,-0.83,0.82,0.88,1.06,0.75,0.80,0.81
247.93,0.01,-0.83,-0.03,-0.86,0.87,0.89,1.08,0.88,0.85,0.84
250.41,0.01,-0.85,-0.04,-0.90,0.92,0.91,1.09,0.93,0.88,0.86
252.92,-0.12,-1.01,-0.06,-0.95,0.96,0.92,1.11,0.84,0.89,0.89
255.45,-0.11,-1.02,-0.10,-1.01,1.00,0.94,1.12,0.89,0.90,0.91
258.00,-0.11,-1.04,-0.13,-1.06,1.05,0.95,1.14,0.94,0.92,0.93
260.58,-0.14,-1.09,-0.15,-1.10,1.10,0.97,1.15,0.96,0.95,0.95
263.19,-0.19,-1.17,-0.18,-1.15,1.17,0.98,1.16,0.98,0.99,0.98
265.82,-0.25,-1.25,-0.22,-1.22,1.24,1.00,1.18,0.99,1.01,1.00
268.48,-0.23,-1.25,-0.28,-1.30,1.31,1.01,1.19,1.08,1.03,1.02
271.16,-0.35,-1.40,-0.33,-1.38,1.39,1.03,1.20,1.03,1.05,1.05
273.87,-0.41,-1.48,-0.37,-1.45,1.46,1.04,1.21,1.05,1.09,1.07
276.61,-0.41,-1.51,-0.44,-1.53,1.53,1.06,1.22,1.12,1.09,1.10
279.38,-0.45,-1.58,-0.48,-1.60,1.59,1.07,1.24,1.14,1.11,1.13
282.17,-0.55,-1.70,-0.51,-1.67,1.64,1.08,1.25,1.09,1.12,1.15
284.99,-0.55,-1.74,-0.53,-1.71,1.67,1.10,1.26,1.12,1.14,1.19
287.84,-0.50,-1.71,-0.54,-1.75,1.70,1.11,1.27,1.20,1.16,1.21
290.72,-0.49,-1.73,-0.47,-1.71,1.72,1.13,1.28,1.23,1.24,1.24
293.63,-0.47,-1.74,-0.42,-1.69,1.73,1.14,1.30,1.26,1.32,1.27
296.57,-0.32,-1.62,-0.42,-1.71,1.75,1.16,1.31,1.43,1.33,1.30
299.53,-0.43,-1.76,-0.43,-1.75,1.78,1.17,1.32,1.35,1.35,1.33
302.53,-0.52,-1.87,-0.43,-1.78,1.80,1.19,1.34,1.28,1.37,1.35
305.55,-0.44,-1.83,-0.47,-1.85,1.84,1.20,1.35,1.40,1.37,1.39
308.61,-0.42,-1.83,-0.49,-1.90,1.88,1.22,1.37,1.46,1.39,1.41
311.69,-0.55,-1.99,-0.52,-1.95,1.93,1.23,1.39,1.38,1.41,1.44
314.81,-0.60,-2.06,-0.54,-2.00,1.99,1.25,1.40,1.39,1.44,1.46
317.96,-0.54,-2.02,-0.55,-2.03,2.04,1.26,1.42,1.50,1.48,1.48
321.14,-0.51,-2.00,-0.58,-2.07,2.08,1.28,1.44,1.57,1.51,1.49
324.35,-0.62,-2.13,-0.61,-2.12,2.14,1.29,1.46,1.52,1.52,1.51
327.59,-0.75,-2.27,-0.65,-2.17,2.19,1.31,1.49,1.44,1.53,1.52
330.87,-0.66,-2.19,-0.72,-2.26,2.24,1.32,1.51,1.58,1.51,1.53
334.18,-0.70,-2.25,-0.76,-2.30,2.30,1.34,1.53,1.60,1.54,1.55
337.52,-0.87,-2.43,-0.76,-2.31,2.35,1.35,1.56,1.48,1.59,1.56
340.90,-0.78,-2.35,-0.82,-2.38,2.39,1.37,1.59,1.61,1.58,1.57
344.30,-0.78,-2.36,-0.86,-2.44,2.41,1.38,1.61,1.63,1.55,1.58
347.75,-0.95,-2.53,-0.88,-2.46,2.42,1.40,1.64,1.47,1.54,1.58
351.23,-0.93,-2.52,-0.90,-2.48,2.42,1.41,1.67,1.49,1.52,1.59
354.74,-0.84,-2.42,-0.89,-2.47,2.41,1.43,1.70,1.57,1.52,1.58
358.28,-0.81,-2.40,-0.81,-2.39,2.42,1.44,1.74,1.61,1.61,1.59
361.87,-0.79,-2.38,-0.72,-2.31,2.42,1.46,1.77,1.63,1.70,1.59
365.49,-0.65,-2.25,-0.72,-2.31,2.42,1.47,1.81,1.76,1.70,1.60
369.14,-0.69,-2.28,-0.79,-2.38,2.41,1.49,1.84,1.72,1.61,1.59
372.83,-0.96,-2.55,-0.87,-2.45,2.40,1.50,1.88,1.44,1.53,1.59
376.56,-1.01,-2.59,-0.92,-2.50,2.39,1.52,1.92,1.38,1.47,1.58
380.33,-0.81,-2.40,-0.88,-2.47,2.39,1.53,1.96,1.58,1.50,1.59
384.13,-0.76,-2.35,-0.79,-2.37,2.39,1.55,2.00,1.63,1.60,1.59
387.97,-0.75,-2.33,-0.74,-2.32,2.38,1.56,2.04,1.63,1.65,1.58
391.85,-0.75,-2.32,-0.75,-2.32,2.37,1.58,2.09,1.62,1.62,1.57
395.77,-0.75,-2.33,-0.75,-2.32,2.34,1.59,2.13,1.59,1.59,1.58
399.73,-0.75,-2.32,-0.75,-2.32,2.31,1.61,2.18,1.56,1.56,1.57
403.72,-0.75,-2.32,-0.75,-2.32,2.28,1.62,2.22,1.53,1.53,1.57
407.76,-0.76,-2.31,-0.76,-2.31,2.27,1.64,2.27,1.51,1.50,1.55
411.84,-0.76,-2.31,-0.77,-2.31,2.27,1.65,2.31,1.51,1.50,1.55
415.96,-0.76,-2.31,-0.73,-2.27,2.28,1.67,2.36,1.52,1.55,1.55
420.12,-0.71,-2.26,-0.69,-2.23,2.31,1.68,2.40,1.60,1.62,1.55
424.32,-0.61,-2.16,-0.68,-2.23,2.34,1.70,2.45,1.73,1.66,1.55
428.56,-0.73,-2.29,-0.74,-2.30,2.37,1.71,2.49,1.64,1.63,1.56
432.85,-0.85,-2.42,-0.86,-2.43,2.40,1.73,2.54,1.55,1.54,1.57
437.18,-1.02,-2.60,-0.95,-2.54,2.43,1.74,2.58,1.41,1.48,1.58
441.55,-0.96,-2.58,-0.95,-2.56,2.45,1.76,2.62,1.49,1.50,1.62
445.96,-0.84,-2.49,-0.88,-2.52,2.46,1.77,2.66,1.62,1.58,1.65
450.42,-0.77,-2.45,-0.78,-2.46,2.47,1.78,2.70,1.70,1.69,1.68
454.93,-0.71,-2.44,-0.70,-2.43,2.47,1.80,2.74,1.76,1.77,1.73
459.48,-0.65,-2.42,-0.65,-2.42,2.47,1.81,2.77,1.82,1.82,1.77
464.07,-0.59,-2.41,-0.58,-2.40,2.46,1.83,2.81,1.87,1.88,1.82
468.71,-0.54,-2.42,-0.53,-2.40,2.46,1.84,2.83,1.92,1.93,1.88
473.40,-0.47,-2.39,-0.54,-2.47,2.47,1.86,2.86,2.00,1.93,1.92
478.13,-0.58,-2.56,-0.55,-2.53,2.49,1.87,2.88,1.91,1.93,1.98
482.91,-0.62,-2.64,-0.54,-2.56,2.50,1.88,2.90,1.88,1.96,2.02
487.74,-0.47,-2.53,-0.51,-2.57,2.52,1.90,2.92,2.05,2.01,2.06
492.62,-0.40,-2.51,-0.43,-2.52,2.53,1.91,2.93,2.13,2.10,2.11
497.55,-0.37,-2.50,-0.36,-2.49,2.53,1.92,2.94,2.16,2.16,2.13
502.52,-0.35,-2.51,-0.34,-2.50,2.52,1.94,2.94,2.17,2.18,2.16
507.55,-0.33,-2.50,-0.33,-2.50,2.51,1.95,2.94,2.18,2.18,2.17
512.62,-0.31,-2.49,-0.31,-2.49,2.49,1.97,2.94,2.18,2.18,2.18
