frequency,raw,error,smoothed,error_smoothed,equalization,parametric_eq,fixed_band_eq,equalized_raw,equalized_smoothed,target
20.00,-7.76,-10.21,-7.71,-10.19,10.19,9.90,2.91,2.43,2.48,2.45
20.20,-7.62,-10.12,-7.59,-10.11,10.11,9.89,2.99,2.49,2.52,2.50
20.40,-7.48,-10.03,-7.47,-10.03,10.03,9.87,3.07,2.55,2.55,2.55
20.61,-7.34,-9.92,-7.36,-9.94,9.94,9.84,3.16,2.60,2.58,2.58
20.81,-7.20,-9.83,-7.24,-9.85,9.85,9.81,3.25,2.65,2.61,2.63
21.02,-7.06,-9.73,-7.12,-9.76,9.76,9.77,3.34,2.70,2.64,2.67
21.23,-6.96,-9.65,-7.00,-9.67,9.67,9.72,3.44,2.71,2.67,2.69
21.44,-6.85,-9.56,-6.88,-9.57,9.57,9.66,3.53,2.72,2.69,2.71
21.66,-6.75,-9.48,-6.76,-9.47,9.47,9.60,3.64,2.72,2.71,2.73
21.87,-6.64,-9.38,-6.64,-9.37,9.37,9.53,3.74,2.73,2.73,2.74
22.09,-6.53,-9.29,-6.53,-9.27,9.27,9.45,3.84,2.74,2.74,2.76
22.31,-6.43,-9.20,-6.41,-9.16,9.16,9.37,3.95,2.73,2.76,2.77
22.54,-6.32,-9.09,-6.29,-9.05,9.05,9.28,4.06,2.73,2.76,2.76
22.76,-6.21,-8.97,-6.17,-8.94,8.94,9.18,4.18,2.73,2.76,2.76
22.99,-6.10,-8.86,-6.05,-8.82,8.82,9.08,4.29,2.72,2.77,2.75
23.22,-5.96,-8.71,-5.94,-8.70,8.70,8.98,4.41,2.74,2.77,2.75
23.45,-5.82,-8.57,-5.82,-8.58,8.58,8.87,4.54,2.76,2.77,2.75
23.69,-5.67,-8.43,-5.69,-8.46,8.46,8.76,4.66,2.79,2.77,2.76
23.92,-5.53,-8.29,-5.57,-8.34,8.34,8.65,4.79,2.81,2.77,2.76
24.16,-5.41,-8.18,-5.45,-8.22,8.22,8.53,4.92,2.81,2.77,2.77
24.40,-5.31,-8.09,-5.34,-8.10,8.10,8.41,5.05,2.79,2.77,2.78
24.65,-5.21,-7.98,-5.22,-7.99,7.99,8.29,5.18,2.78,2.77,2.77
24.89,-5.10,-7.87,-5.11,-7.88,7.88,8.16,5.31,2.78,2.77,2.77
25.14,-5.00,-7.77,-5.01,-7.77,7.77,8.04,5.45,2.77,2.77,2.77
25.39,-4.90,-7.67,-4.90,-7.67,7.67,7.91,5.59,2.77,2.77,2.77
25.65,-4.79,-7.57,-4.79,-7.56,7.56,7.78,5.72,2.77,2.77,2.77
25.91,-4.69,-7.46,-4.69,-7.46,7.46,7.66,5.86,2.76,2.77,2.76
26.16,-4.59,-7.35,-4.59,-7.35,7.35,7.53,6.00,2.76,2.77,2.76
26.43,-4.50,-7.26,-4.48,-7.25,7.25,7.40,6.13,2.74,2.76,2.76
26.69,-4.41,-7.17,-4.38,-7.14,7.14,7.27,6.27,2.73,2.76,2.76
26.96,-4.31,-7.08,-4.27,-7.03,7.03,7.14,6.40,2.72,2.76,2.77
27.23,-4.19,-6.96,-4.16,-6.92,6.92,7.01,6.53,2.73,2.76,2.77
27.50,-4.05,-6.82,-4.06,-6.81,6.81,6.88,6.65,2.76,2.76,2.76
27.77,-3.91,-6.66,-3.95,-6.71,6.71,6.75,6.77,2.80,2.75,2.75
28.05,-3.78,-6.53,-3.84,-6.59,6.59,6.62,6.88,2.81,2.75,2.75
28.33,-3.69,-6.43,-3.72,-6.47,6.47,6.49,6.99,2.77,2.75,2.74
28.62,-3.60,-6.34,-3.59,-6.34,6.34,6.36,7.08,2.74,2.75,2.74
28.90,-3.50,-6.25,-3.47,-6.22,6.22,6.24,7.17,2.72,2.75,2.75
29.19,-3.39,-6.13,-3.35,-6.10,6.10,6.11,7.25,2.71,2.75,2.73
29.48,-3.28,-6.03,-3.24,-5.99,5.99,5.99,7.32,2.70,2.74,2.75
29.78,-3.17,-5.91,-3.14,-5.88,5.88,5.86,7.38,2.70,2.74,2.74
30.08,-3.04,-5.79,-3.03,-5.77,5.77,5.74,7.42,2.73,2.74,2.75
30.38,-2.89,-5.63,-2.93,-5.67,5.67,5.62,7.45,2.78,2.74,2.74
30.68,-2.73,-5.47,-2.83,-5.57,5.57,5.50,7.46,2.83,2.73,2.73
30.99,-2.58,-5.32,-2.73,-5.46,5.46,5.38,7.47,2.88,2.73,2.73
31.30,-2.55,-5.28,-2.62,-5.35,5.35,5.26,7.45,2.80,2.73,2.73
31.61,-2.53,-5.26,-2.50,-5.23,5.23,5.15,7.42,2.70,2.73,2.73
31.93,-2.51,-5.24,-2.39,-5.11,5.11,5.03,7.38,2.60,2.72,2.72
32.24,-2.40,-5.11,-2.28,-5.00,5.00,4.92,7.33,2.60,2.72,2.71
32.57,-2.25,-4.97,-2.17,-4.88,4.88,4.80,7.26,2.63,2.71,2.72
32.89,-2.10,-4.82,-2.06,-4.77,4.77,4.69,7.18,2.66,2.71,2.72
33.22,-1.95,-4.65,-1.95,-4.65,4.65,4.58,7.08,2.70,2.70,2.70
33.55,-1.80,-4.50,-1.83,-4.53,4.53,4.47,6.98,2.73,2.70,2.70
33.89,-1.65,-4.34,-1.72,-4.41,4.41,4.36,6.86,2.76,2.69,2.69
34.23,-1.54,-4.24,-1.60,-4.29,4.29,4.26,6.73,2.75,2.69,2.69
34.57,-1.45,-4.13,-1.49,-4.17,4.17,4.15,6.60,2.72,2.68,2.68
34.92,-1.36,-4.04,-1.36,-4.04,4.04,4.05,6.46,2.68,2.68,2.68
35.27,-1.26,-3.94,-1.25,-3.92,3.92,3.95,6.31,2.66,2.67,2.67
35.62,-1.15,-3.82,-1.14,-3.81,3.81,3.84,6.16,2.66,2.67,2.67
35.97,-1.05,-3.71,-1.04,-3.71,3.71,3.74,6.00,2.66,2.67,2.66
36.33,-0.94,-3.61,-0.95,-3.61,3.61,3.64,5.84,2.67,2.66,2.67
36.70,-0.83,-3.49,-0.85,-3.52,3.52,3.55,5.68,2.69,2.66,2.66
37.06,-0.73,-3.38,-0.77,-3.43,3.43,3.45,5.52,2.70,2.66,2.65
37.43,-0.67,-3.34,-0.69,-3.35,3.35,3.35,5.35,2.68,2.66,2.67
37.81,-0.62,-3.28,-0.60,-3.27,3.27,3.26,5.18,2.64,2.66,2.66
38.19,-0.54,-3.20,-0.52,-3.18,3.18,3.17,5.01,2.64,2.66,2.66
38.57,-0.44,-3.10,-0.44,-3.10,3.10,3.07,4.84,2.65,2.66,2.66
38.95,-0.34,-3.01,-0.34,-3.00,3.00,2.98,4.67,2.66,2.66,2.67
39.34,-0.25,-2.91,-0.25,-2.90,2.90,2.89,4.51,2.65,2.66,2.66
39.74,-0.17,-2.83,-0.15,-2.81,2.81,2.80,4.34,2.63,2.66,2.65
40.14,-0.09,-2.75,-0.05,-2.71,2.71,2.72,4.17,2.62,2.65,2.66
40.54,-0.01,-2.66,0.04,-2.61,2.61,2.63,4.01,2.60,2.65,2.65
40.94,0.06,-2.59,0.12,-2.53,2.53,2.54,3.85,2.59,2.65,2.64
41.35,0.18,-2.46,0.20,-2.44,2.44,2.46,3.69,2.62,2.64,2.64
41.76,0.32,-2.31,0.28,-2.35,2.35,2.37,3.53,2.67,2.63,2.63
42.18,0.44,-2.19,0.37,-2.25,2.25,2.29,3.37,2.69,2.62,2.63
42.60,0.56,-2.06,0.45,-2.16,2.16,2.21,3.21,2.72,2.61,2.61
43.03,0.67,-1.94,0.54,-2.06,2.06,2.13,3.06,2.73,2.60,2.61
43.46,0.65,-1.95,0.61,-1.97,1.97,2.04,2.91,2.62,2.58,2.60
43.90,0.63,-1.94,0.67,-1.90,1.90,1.96,2.76,2.52,2.57,2.57
44.33,0.65,-1.90,0.74,-1.82,1.82,1.89,2.61,2.47,2.56,2.55
44.78,0.68,-1.85,0.81,-1.74,1.74,1.81,2.46,2.42,2.54,2.53
45.23,0.78,-1.74,0.87,-1.66,1.66,1.73,2.32,2.43,2.53,2.52
45.68,0.95,-1.55,0.93,-1.58,1.58,1.65,2.18,2.52,2.51,2.50
46.13,1.08,-1.40,0.99,-1.50,1.50,1.58,2.04,2.58,2.49,2.48
46.60,1.14,-1.34,1.04,-1.44,1.44,1.50,1.90,2.57,2.48,2.48
47.06,1.17,-1.29,1.10,-1.36,1.36,1.43,1.76,2.53,2.46,2.46
47.53,1.13,-1.32,1.16,-1.29,1.29,1.35,1.62,2.42,2.44,2.45
48.01,1.08,-1.37,1.23,-1.20,1.20,1.28,1.49,2.28,2.43,2.45
48.49,1.27,-1.16,1.31,-1.10,1.10,1.21,1.36,2.37,2.41,2.42
48.97,1.46,-0.94,1.39,-1.01,1.01,1.14,1.23,2.47,2.40,2.40
49.46,1.49,-0.89,1.45,-0.93,0.93,1.06,1.10,2.42,2.38,2.38
49.96,1.52,-0.83,1.51,-0.85,0.85,0.99,0.97,2.37,2.36,2.35
50.46,1.54,-0.81,1.57,-0.78,0.78,0.92,0.85,2.31,2.35,2.35
50.96,1.57,-0.76,1.64,-0.69,0.69,0.85,0.73,2.26,2.33,2.33
51.47,1.68,-0.63,1.71,-0.61,0.61,0.78,0.61,2.29,2.32,2.31
51.99,1.80,-0.49,1.77,-0.53,0.53,0.72,0.49,2.33,2.30,2.29
52.51,1.90,-0.39,1.83,-0.45,0.45,0.65,0.37,2.35,2.29,2.29
53.03,2.00,-0.28,1.89,-0.38,0.38,0.58,0.26,2.38,2.27,2.28
53.56,1.94,-0.32,1.95,-0.30,0.30,0.51,0.14,2.24,2.26,2.26
54.10,1.92,-0.32,2.00,-0.24,0.24,0.45,0.03,2.16,2.24,2.24
54.64,2.02,-0.21,2.04,-0.19,0.19,0.38,-0.08,2.20,2.23,2.22
55.18,2.12,-0.09,2.09,-0.12,0.12,0.31,-0.18,2.24,2.21,2.21
55.74,2.23,0.03,2.14,-0.06,0.06,0.25,-0.28,2.29,2.20,2.19
56.29,2.22,0.04,2.18,0.00,-0.00,0.18,-0.38,2.22,2.18,2.18
56.86,2.11,-0.05,2.22,0.06,-0.06,0.12,-0.48,2.05,2.16,2.16
57.42,2.17,0.04,2.25,0.11,-0.11,0.05,-0.58,2.06,2.14,2.13
58.00,2.28,0.16,2.29,0.17,-0.17,-0.01,-0.67,2.11,2.12,2.12
58.58,2.38,0.28,2.31,0.22,-0.22,-0.07,-0.76,2.16,2.09,2.10
59.16,2.42,0.34,2.34,0.27,-0.27,-0.14,-0.84,2.14,2.06,2.08
59.76,2.33,0.28,2.37,0.34,-0.34,-0.20,-0.92,1.99,2.03,2.05
60.35,2.36,0.35,2.40,0.40,-0.40,-0.26,-1.00,1.96,2.00,2.01
60.96,2.47,0.50,2.42,0.46,-0.46,-0.32,-1.07,2.01,1.96,1.97
61.57,2.48,0.56,2.44,0.53,-0.53,-0.39,-1.14,1.95,1.92,1.92
62.18,2.48,0.60,2.47,0.59,-0.59,-0.45,-1.21,1.89,1.88,1.87
62.80,2.48,0.65,2.50,0.67,-0.67,-0.51,-1.27,1.81,1.83,1.82
63.43,2.48,0.70,2.52,0.74,-0.74,-0.57,-1.33,1.74,1.78,1.77
64.07,2.48,0.75,2.53,0.80,-0.80,-0.63,-1.39,1.68,1.73,1.72
64.71,2.48,0.81,2.54,0.86,-0.86,-0.69,-1.44,1.62,1.68,1.67
65.35,2.55,0.92,2.55,0.92,-0.92,-0.75,-1.49,1.63,1.63,1.63
66.01,2.68,1.10,2.56,0.98,-0.98,-0.81,-1.54,1.69,1.58,1.58
66.67,2.62,1.10,2.58,1.05,-1.05,-0.87,-1.58,1.57,1.52,1.52
67.33,2.59,1.12,2.58,1.11,-1.11,-0.93,-1.62,1.48,1.47,1.47
68.01,2.58,1.16,2.59,1.17,-1.17,-0.99,-1.66,1.41,1.42,1.42
68.69,2.58,1.22,2.58,1.22,-1.22,-1.05,-1.70,1.36,1.36,1.36
69.37,2.58,1.27,2.57,1.27,-1.27,-1.11,-1.73,1.31,1.30,1.30
70.07,2.58,1.33,2.57,1.33,-1.33,-1.17,-1.77,1.25,1.24,1.24
70.77,2.58,1.38,2.57,1.39,-1.39,-1.23,-1.80,1.19,1.18,1.19
71.48,2.58,1.45,2.58,1.45,-1.45,-1.29,-1.83,1.12,1.12,1.13
72.19,2.58,1.52,2.58,1.52,-1.52,-1.35,-1.86,1.06,1.06,1.06
72.91,2.58,1.58,2.59,1.59,-1.59,-1.41,-1.89,0.99,1.00,1.00
73.64,2.58,1.64,2.60,1.66,-1.66,-1.47,-1.92,0.92,0.93,0.93
74.38,2.56,1.69,2.62,1.75,-1.75,-1.53,-1.95,0.81,0.87,0.87
75.12,2.53,1.73,2.63,1.83,-1.83,-1.58,-1.97,0.70,0.81,0.80
75.87,2.50,1.76,2.65,1.91,-1.91,-1.64,-2.00,0.59,0.75,0.74
76.63,2.74,2.06,2.68,2.00,-2.00,-1.70,-2.03,0.74,0.68,0.68
77.40,2.85,2.23,2.72,2.09,-2.09,-1.76,-2.06,0.76,0.62,0.62
78.17,2.78,2.23,2.74,2.18,-2.18,-1.82,-2.09,0.60,0.56,0.55
78.95,2.78,2.27,2.76,2.25,-2.25,-1.88,-2.12,0.52,0.50,0.51
79.74,2.78,2.33,2.77,2.32,-2.32,-1.93,-2.16,0.45,0.44,0.45
80.54,2.78,2.39,2.78,2.39,-2.39,-1.99,-2.19,0.39,0.39,0.39
81.35,2.78,2.45,2.78,2.45,-2.45,-2.05,-2.23,0.33,0.33,0.33
82.16,2.78,2.50,2.78,2.51,-2.51,-2.11,-2.26,0.27,0.28,0.27
82.98,2.78,2.55,2.77,2.55,-2.55,-2.17,-2.30,0.23,0.22,0.23
83.81,2.84,2.68,2.75,2.59,-2.59,-2.22,-2.34,0.25,0.16,0.16
84.65,2.84,2.73,2.72,2.61,-2.61,-2.28,-2.38,0.23,0.11,0.10
85.50,2.68,2.62,2.68,2.63,-2.63,-2.34,-2.43,0.05,0.05,0.06
86.35,2.51,2.51,2.65,2.65,-2.65,-2.39,-2.47,-0.15,-0.01,-0.00
87.22,2.53,2.59,2.62,2.68,-2.68,-2.45,-2.52,-0.15,-0.07,-0.06
88.09,2.58,2.70,2.58,2.70,-2.70,-2.51,-2.57,-0.13,-0.13,-0.12
88.97,2.57,2.75,2.54,2.72,-2.72,-2.57,-2.62,-0.15,-0.19,-0.18
89.86,2.50,2.74,2.49,2.74,-2.74,-2.62,-2.68,-0.24,-0.25,-0.25
90.76,2.43,2.74,2.45,2.75,-2.75,-2.68,-2.73,-0.32,-0.30,-0.31
91.66,2.40,2.76,2.40,2.77,-2.77,-2.74,-2.79,-0.37,-0.36,-0.36
92.58,2.39,2.82,2.36,2.79,-2.79,-2.79,-2.85,-0.40,-0.42,-0.44
93.51,2.37,2.86,2.33,2.81,-2.81,-2.85,-2.91,-0.44,-0.48,-0.49
94.44,2.32,2.86,2.29,2.84,-2.84,-2.91,-2.98,-0.52,-0.54,-0.54
95.39,2.26,2.86,2.26,2.87,-2.87,-2.96,-3.04,-0.61,-0.60,-0.60
96.34,2.19,2.85,2.24,2.90,-2.90,-3.02,-3.11,-0.71,-0.66,-0.67
97.30,2.18,2.90,2.20,2.91,-2.91,-3.08,-3.18,-0.74,-0.72,-0.72
98.28,2.17,2.95,2.16,2.94,-2.94,-3.13,-3.25,-0.77,-0.78,-0.78
99.26,2.15,2.98,2.14,2.98,-2.98,-3.19,-3.32,-0.83,-0.83,-0.83
100.25,2.14,3.03,2.12,3.02,-3.02,-3.25,-3.40,-0.88,-0.89,-0.89
101.25,2.12,3.07,2.10,3.05,-3.05,-3.30,-3.47,-0.94,-0.95,-0.95
102.27,2.10,3.11,2.09,3.10,-3.10,-3.36,-3.55,-1.00,-1.01,-1.01
103.29,2.05,3.12,2.09,3.16,-3.16,-3.41,-3.63,-1.11,-1.07,-1.07
104.32,2.04,3.16,2.09,3.22,-3.22,-3.47,-3.70,-1.18,-1.13,-1.12
105.37,2.10,3.28,2.10,3.29,-3.29,-3.53,-3.78,-1.19,-1.19,-1.18
106.42,2.13,3.37,2.12,3.36,-3.36,-3.58,-3.86,-1.24,-1.25,-1.24
107.48,2.12,3.42,2.14,3.45,-3.45,-3.64,-3.94,-1.33,-1.31,-1.31
108.56,2.19,3.56,2.17,3.54,-3.54,-3.69,-4.01,-1.35,-1.37,-1.37
109.64,2.20,3.63,2.20,3.63,-3.63,-3.75,-4.09,-1.43,-1.43,-1.43
110.74,2.10,3.60,2.23,3.72,-3.72,-3.80,-4.16,-1.62,-1.50,-1.50
111.85,2.28,3.82,2.26,3.82,-3.82,-3.86,-4.24,-1.54,-1.56,-1.55
112.97,2.37,3.99,2.29,3.91,-3.91,-3.91,-4.31,-1.54,-1.62,-1.62
114.10,2.33,4.01,2.33,4.00,-4.00,-3.97,-4.37,-1.67,-1.68,-1.68
115.24,2.33,4.06,2.36,4.09,-4.09,-4.02,-4.44,-1.76,-1.73,-1.73
116.39,2.44,4.24,2.38,4.17,-4.17,-4.07,-4.50,-1.73,-1.79,-1.80
117.55,2.49,4.33,2.40,4.24,-4.24,-4.13,-4.56,-1.75,-1.84,-1.85
118.73,2.45,4.35,2.42,4.31,-4.31,-4.18,-4.62,-1.86,-1.89,-1.90
119.92,2.42,4.35,2.44,4.37,-4.37,-4.23,-4.67,-1.95,-1.94,-1.94
121.12,2.43,4.42,2.45,4.43,-4.43,-4.29,-4.71,-2.00,-1.98,-1.99
122.33,2.44,4.47,2.46,4.49,-4.49,-4.34,-4.76,-2.05,-2.03,-2.03
123.55,2.45,4.51,2.47,4.54,-4.54,-4.39,-4.79,-2.09,-2.07,-2.07
124.79,2.45,4.56,2.47,4.58,-4.58,-4.44,-4.83,-2.13,-2.11,-2.11
126.03,2.46,4.61,2.48,4.63,-4.63,-4.50,-4.86,-2.17,-2.15,-2.15
127.29,2.47,4.65,2.49,4.68,-4.68,-4.55,-4.88,-2.21,-2.19,-2.18
128.57,2.47,4.70,2.48,4.71,-4.71,-4.60,-4.90,-2.24,-2.23,-2.23
129.85,2.48,4.75,2.48,4.74,-4.74,-4.65,-4.92,-2.26,-2.27,-2.27
131.15,2.48,4.79,2.47,4.77,-4.77,-4.70,-4.93,-2.29,-2.31,-2.31
132.46,2.49,4.83,2.47,4.81,-4.81,-4.75,-4.93,-2.32,-2.34,-2.34
133.79,2.49,4.87,2.47,4.85,-4.85,-4.80,-4.94,-2.36,-2.38,-2.38
135.12,2.50,4.93,2.47,4.88,-4.88,-4.85,-4.94,-2.39,-2.42,-2.43
136.48,2.50,4.95,2.46,4.92,-4.92,-4.90,-4.94,-2.42,-2.45,-2.45
137.84,2.50,4.99,2.46,4.95,-4.95,-4.95,-4.93,-2.45,-2.49,-2.50
139.22,2.44,4.98,2.45,4.97,-4.97,-5.00,-4.93,-2.53,-2.53,-2.54
140.61,2.34,4.92,2.44,5.00,-5.00,-5.04,-4.92,-2.66,-2.56,-2.58
142.02,2.33,4.93,2.42,5.03,-5.03,-5.09,-4.91,-2.70,-2.61,-2.60
143.44,2.39,5.03,2.41,5.06,-5.06,-5.14,-4.90,-2.67,-2.65,-2.64
144.87,2.41,5.10,2.40,5.10,-5.10,-5.18,-4.89,-2.69,-2.69,-2.69
146.32,2.48,5.22,2.39,5.14,-5.14,-5.23,-4.88,-2.66,-2.75,-2.74
147.78,2.46,5.24,2.39,5.19,-5.19,-5.28,-4.87,-2.73,-2.80,-2.78
149.26,2.36,5.19,2.38,5.25,-5.25,-5.32,-4.86,-2.89,-2.87,-2.83
150.75,2.31,5.22,2.36,5.30,-5.30,-5.36,-4.85,-2.99,-2.93,-2.91
152.26,2.31,5.29,2.34,5.35,-5.35,-5.41,-4.84,-3.04,-3.00,-2.98
153.78,2.31,5.37,2.32,5.39,-5.39,-5.45,-4.84,-3.08,-3.08,-3.06
155.32,2.31,5.45,2.29,5.44,-5.44,-5.49,-4.84,-3.13,-3.15,-3.14
156.88,2.31,5.53,2.26,5.49,-5.49,-5.53,-4.83,-3.19,-3.23,-3.22
158.44,2.31,5.62,2.22,5.53,-5.53,-5.58,-4.84,-3.22,-3.31,-3.31
160.03,2.28,5.68,2.18,5.57,-5.57,-5.62,-4.84,-3.29,-3.38,-3.40
161.63,2.22,5.70,2.15,5.60,-5.60,-5.66,-4.85,-3.39,-3.46,-3.48
163.24,2.10,5.65,2.12,5.64,-5.64,-5.69,-4.86,-3.54,-3.52,-3.55
164.88,2.00,5.60,2.09,5.67,-5.67,-5.73,-4.87,-3.67,-3.59,-3.60
166.53,1.93,5.59,2.06,5.70,-5.70,-5.77,-4.89,-3.77,-3.64,-3.66
168.19,1.96,5.66,2.03,5.72,-5.72,-5.81,-4.91,-3.76,-3.69,-3.70
169.87,1.98,5.73,2.02,5.74,-5.74,-5.84,-4.94,-3.76,-3.73,-3.75
171.57,2.06,5.83,2.01,5.76,-5.76,-5.88,-4.97,-3.71,-3.76,-3.77
173.29,2.02,5.81,2.00,5.79,-5.79,-5.91,-5.00,-3.77,-3.78,-3.79
175.02,1.98,5.78,2.01,5.81,-5.81,-5.94,-5.03,-3.83,-3.80,-3.80
176.77,2.11,5.93,2.02,5.84,-5.84,-5.98,-5.07,-3.73,-3.82,-3.82
178.54,2.01,5.84,2.05,5.88,-5.88,-6.01,-5.12,-3.87,-3.83,-3.83
180.32,2.01,5.84,2.08,5.92,-5.92,-6.04,-5.17,-3.91,-3.84,-3.83
182.13,2.05,5.88,2.11,5.96,-5.96,-6.07,-5.22,-3.91,-3.85,-3.83
183.95,2.13,5.98,2.14,6.01,-6.01,-6.10,-5.27,-3.88,-3.86,-3.85
185.79,2.27,6.12,2.17,6.04,-6.04,-6.13,-5.33,-3.77,-3.88,-3.85
187.65,2.27,6.15,2.18,6.07,-6.07,-6.15,-5.40,-3.80,-3.89,-3.88
189.52,2.23,6.12,2.20,6.10,-6.10,-6.18,-5.46,-3.87,-3.90,-3.89
191.42,2.23,6.15,2.22,6.14,-6.14,-6.20,-5.53,-3.91,-3.92,-3.92
193.33,2.25,6.19,2.25,6.19,-6.19,-6.23,-5.61,-3.94,-3.94,-3.94
195.27,2.26,6.22,2.28,6.24,-6.24,-6.25,-5.68,-3.98,-3.96,-3.96
197.22,2.28,6.26,2.30,6.29,-6.29,-6.27,-5.76,-4.01,-3.98,-3.98
199.19,2.29,6.30,2.33,6.34,-6.34,-6.29,-5.84,-4.05,-4.01,-4.02
201.18,2.30,6.33,2.35,6.38,-6.38,-6.31,-5.93,-4.08,-4.03,-4.04
203.19,2.30,6.35,2.35,6.41,-6.41,-6.33,-6.02,-4.11,-4.06,-4.06
205.23,2.30,6.38,2.35,6.44,-6.44,-6.35,-6.10,-4.14,-4.08,-4.08
207.28,2.36,6.45,2.35,6.45,-6.45,-6.37,-6.19,-4.09,-4.11,-4.09
209.35,2.48,6.60,2.34,6.47,-6.47,-6.38,-6.29,-3.99,-4.13,-4.12
211.44,2.46,6.62,2.35,6.50,-6.50,-6.40,-6.38,-4.04,-4.15,-4.16
213.56,2.41,6.57,2.34,6.51,-6.51,-6.41,-6.47,-4.10,-4.17,-4.16
215.69,2.39,6.57,2.32,6.51,-6.51,-6.42,-6.56,-4.12,-4.18,-4.18
217.85,2.31,6.50,2.30,6.50,-6.50,-6.43,-6.65,-4.19,-4.20,-4.20
220.03,2.25,6.46,2.29,6.50,-6.50,-6.44,-6.74,-4.25,-4.21,-4.21
222.23,2.20,6.43,2.27,6.49,-6.49,-6.45,-6.82,-4.29,-4.22,-4.24
224.45,2.18,6.41,2.25,6.48,-6.48,-6.46,-6.90,-4.30,-4.22,-4.23
226.70,2.18,6.41,2.24,6.46,-6.46,-6.46,-6.98,-4.29,-4.23,-4.23
228.96,2.19,6.42,2.23,6.45,-6.45,-6.47,-7.05,-4.26,-4.22,-4.23
231.25,2.27,6.49,2.21,6.43,-6.43,-6.47,-7.12,-4.16,-4.22,-4.22
233.57,2.23,6.44,2.20,6.41,-6.41,-6.48,-7.18,-4.18,-4.21,-4.21
235.90,2.03,6.23,2.20,6.40,-6.40,-6.48,-7.23,-4.37,-4.20,-4.20
238.26,2.18,6.37,2.21,6.39,-6.39,-6.48,-7.28,-4.21,-4.18,-4.19
240.64,2.28,6.45,2.21,6.38,-6.38,-6.48,-7.31,-4.10,-4.17,-4.18
243.05,2.32,6.46,2.22,6.37,-6.37,-6.48,-7.34,-4.05,-4.15,-4.15
245.48,2.23,6.35,2.23,6.35,-6.35,-6.47,-7.36,-4.13,-4.13,-4.13
247.93,2.22,6.31,2.23,6.33,-6.33,-6.47,-7.37,-4.12,-4.11,-4.10
250.41,2.28,6.36,2.21,6.30,-6.30,-6.46,-7.37,-4.02,-4.09,-4.09
252.92,2.21,6.26,2.19,6.26,-6.26,-6.46,-7.36,-4.05,-4.06,-4.05
255.45,2.17,6.20,2.17,6.22,-6.22,-6.45,-7.34,-4.05,-4.04,-4.03
258.00,2.17,6.18,2.16,6.17,-6.17,-6.44,-7.31,-4.01,-4.02,-4.01
260.58,2.20,6.20,2.14,6.14,-6.14,-6.43,-7.28,-3.94,-4.00,-4.00
263.19,2.14,6.11,2.12,6.09,-6.09,-6.42,-7.23,-3.95,-3.97,-3.97
265.82,2.07,6.02,2.08,6.03,-6.03,-6.41,-7.17,-3.96,-3.95,-3.96
268.48,2.06,5.99,2.05,5.97,-5.97,-6.40,-7.11,-3.92,-3.93,-3.93
271.16,2.06,5.96,2.03,5.94,-5.94,-6.38,-7.04,-3.88,-3.90,-3.90
273.87,1.96,5.84,2.04,5.92,-5.92,-6.37,-6.97,-3.96,-3.88,-3.89
276.61,1.92,5.77,2.05,5.91,-5.91,-6.35,-6.89,-3.99,-3.85,-3.85
279.38,2.05,5.88,2.06,5.89,-5.89,-6.33,-6.80,-3.84,-3.83,-3.83
282.17,2.10,5.90,2.07,5.87,-5.87,-6.31,-6.71,-3.78,-3.80,-3.81
284.99,2.08,5.85,2.09,5.87,-5.87,-6.30,-6.62,-3.79,-3.78,-3.77
287.84,2.07,5.83,2.13,5.88,-5.88,-6.27,-6.52,-3.81,-3.75,-3.76
290.72,2.12,5.84,2.17,5.89,-5.89,-6.25,-6.43,-3.78,-3.72,-3.72
293.63,2.18,5.88,2.22,5.92,-5.92,-6.23,-6.33,-3.74,-3.69,-3.70
296.57,2.38,6.04,2.28,5.94,-5.94,-6.21,-6.23,-3.56,-3.66,-3.66
299.53,2.49,6.13,2.34,5.97,-5.97,-6.18,-6.13,-3.48,-3.64,-3.64
302.53,2.46,6.08,2.40,6.01,-6.01,-6.16,-6.03,-3.55,-3.61,-3.62
305.55,2.37,5.94,2.46,6.04,-6.04,-6.13,-5.93,-3.68,-3.59,-3.58
308.61,2.37,5.93,2.50,6.07,-6.07,-6.10,-5.84,-3.70,-3.56,-3.56
311.69,2.54,6.07,2.54,6.08,-6.08,-6.08,-5.74,-3.55,-3.54,-3.53
314.81,2.69,6.20,2.59,6.11,-6.11,-6.05,-5.65,-3.42,-3.52,-3.51
317.96,2.73,6.22,2.63,6.13,-6.13,-6.02,-5.56,-3.40,-3.50,-3.49
321.14,2.63,6.11,2.67,6.15,-6.15,-5.99,-5.47,-3.52,-3.48,-3.49
324.35,2.67,6.14,2.70,6.17,-6.17,-5.95,-5.39,-3.50,-3.47,-3.47
327.59,2.76,6.21,2.73,6.18,-6.18,-5.92,-5.31,-3.42,-3.45,-3.45
330.87,2.77,6.21,2.75,6.19,-6.19,-5.89,-5.23,-3.42,-3.44,-3.45
334.18,2.76,6.19,2.77,6.20,-6.20,-5.85,-5.15,-3.44,-3.43,-3.43
337.52,2.72,6.14,2.80,6.22,-6.22,-5.82,-5.08,-3.50,-3.42,-3.42
340.90,2.75,6.15,2.82,6.23,-6.23,-5.78,-5.01,-3.48,-3.41,-3.41
344.30,2.84,6.24,2.82,6.23,-6.23,-5.75,-4.95,-3.39,-3.41,-3.40
347.75,2.86,6.26,2.82,6.22,-6.22,-5.71,-4.89,-3.36,-3.40,-3.40
351.23,2.88,6.27,2.82,6.22,-6.22,-5.67,-4.83,-3.34,-3.40,-3.39
354.74,2.88,6.27,2.82,6.21,-6.21,-5.63,-4.78,-3.34,-3.39,-3.40
358.28,2.79,6.18,2.82,6.21,-6.21,-5.60,-4.73,-3.42,-3.39,-3.39
361.87,2.78,6.17,2.80,6.19,-6.19,-5.56,-4.68,-3.41,-3.39,-3.39
365.49,2.80,6.18,2.77,6.16,-6.16,-5.52,-4.64,-3.37,-3.39,-3.38
369.14,2.71,6.10,2.75,6.14,-6.14,-5.47,-4.60,-3.43,-3.39,-3.40
372.83,2.70,6.10,2.71,6.10,-6.10,-5.43,-4.57,-3.40,-3.39,-3.40
376.56,2.70,6.10,2.67,6.06,-6.06,-5.39,-4.53,-3.36,-3.39,-3.40
380.33,2.64,6.03,2.61,6.01,-6.01,-5.35,-4.50,-3.37,-3.40,-3.39
384.13,2.60,5.99,2.55,5.95,-5.95,-5.31,-4.48,-3.35,-3.40,-3.39
387.97,2.54,5.94,2.48,5.89,-5.89,-5.26,-4.46,-3.35,-3.41,-3.40
391.85,2.41,5.83,2.42,5.83,-5.83,-5.22,-4.44,-3.42,-3.41,-3.42
395.77,2.34,5.75,2.35,5.77,-5.77,-5.17,-4.42,-3.43,-3.42,-3.41
399.73,2.28,5.70,2.28,5.71,-5.71,-5.13,-4.41,-3.43,-3.42,-3.42
403.72,2.23,5.65,2.22,5.65,-5.65,-5.08,-4.39,-3.42,-3.43,-3.42
407.76,2.15,5.58,2.16,5.59,-5.59,-5.03,-4.38,-3.45,-3.43,-3.43
411.84,2.11,5.54,2.11,5.55,-5.55,-4.99,-4.38,-3.44,-3.44,-3.43
415.96,2.04,5.47,2.06,5.50,-5.50,-4.94,-4.37,-3.46,-3.44,-3.44
420.12,1.97,5.41,2.02,5.46,-5.46,-4.89,-4.37,-3.49,-3.44,-3.44
424.32,1.93,5.37,2.00,5.43,-5.43,-4.84,-4.36,-3.50,-3.43,-3.44
428.56,1.93,5.36,1.98,5.41,-5.41,-4.80,-4.36,-3.48,-3.42,-3.43
432.85,1.94,5.36,1.98,5.39,-5.39,-4.75,-4.36,-3.45,-3.41,-3.42
437.18,1.97,5.38,1.99,5.37,-5.37,-4.70,-4.36,-3.40,-3.39,-3.41
441.55,2.00,5.37,2.00,5.36,-5.36,-4.65,-4.36,-3.36,-3.36,-3.37
445.96,2.04,5.38,2.01,5.34,-5.34,-4.60,-4.36,-3.30,-3.33,-3.34
450.42,2.02,5.33,2.03,5.32,-5.32,-4.55,-4.36,-3.30,-3.29,-3.31
454.93,2.06,5.32,2.05,5.30,-5.30,-4.49,-4.35,-3.24,-3.25,-3.27
459.48,2.10,5.31,2.07,5.28,-5.28,-4.44,-4.35,-3.18,-3.21,-3.22
464.07,2.11,5.28,2.09,5.25,-5.25,-4.39,-4.34,-3.14,-3.16,-3.17
468.71,2.11,5.22,2.10,5.21,-5.21,-4.34,-4.34,-3.11,-3.12,-3.11
473.40,2.09,5.16,2.10,5.17,-5.17,-4.28,-4.33,-3.08,-3.07,-3.07
478.13,2.09,5.10,2.09,5.11,-5.11,-4.23,-4.31,-3.02,-3.02,-3.01
482.91,2.09,5.06,2.06,5.04,-5.04,-4.17,-4.30,-2.95,-2.97,-2.97
487.74,2.05,4.98,2.03,4.96,-4.96,-4.12,-4.28,-2.91,-2.93,-2.93
492.62,1.99,4.87,1.99,4.89,-4.89,-4.06,-4.26,-2.90,-2.90,-2.88
497.55,1.92,4.78,1.93,4.80,-4.80,-4.00,-4.24,-2.88,-2.87,-2.86
