frequency,raw,error,smoothed,error_smoothed,equalization,parametric_eq,fixed_band_eq,equalized_raw,equalized_smoothed,target
20.00,-1.05,-7.81,-1.08,-7.83,7.83,7.74,3.24,6.78,6.76,6.75
20.20,-1.03,-7.79,-1.04,-7.79,7.79,7.72,3.33,6.76,6.76,6.75
20.40,-1.00,-7.75,-0.99,-7.75,7.75,7.70,3.42,6.75,6.75,6.75
20.61,-0.97,-7.72,-0.95,-7.71,7.71,7.69,3.51,6.73,6.75,6.75
20.81,-0.94,-7.68,-0.92,-7.66,7.66,7.67,3.61,6.72,6.75,6.74
21.02,-0.89,-7.63,-0.88,-7.62,7.62,7.65,3.71,6.73,6.74,6.74
21.23,-0.86,-7.60,-0.84,-7.58,7.58,7.63,3.81,6.72,6.74,6.74
21.44,-0.81,-7.56,-0.81,-7.55,7.55,7.61,3.92,6.74,6.74,6.75
21.66,-0.77,-7.51,-0.77,-7.51,7.51,7.58,4.03,6.74,6.73,6.74
21.87,-0.72,-7.46,-0.74,-7.47,7.47,7.56,4.14,6.75,6.73,6.74
22.09,-0.69,-7.42,-0.71,-7.44,7.44,7.54,4.25,6.75,6.73,6.73
22.31,-0.66,-7.39,-0.68,-7.40,7.40,7.52,4.37,6.74,6.72,6.73
22.54,-0.64,-7.36,-0.65,-7.37,7.37,7.49,4.49,6.73,6.72,6.71
22.76,-0.62,-7.33,-0.62,-7.34,7.34,7.47,4.62,6.72,6.71,6.71
22.99,-0.60,-7.31,-0.60,-7.30,7.30,7.45,4.74,6.70,6.71,6.71
23.22,-0.58,-7.28,-0.57,-7.28,7.28,7.42,4.87,6.69,6.70,6.70
23.45,-0.56,-7.26,-0.55,-7.25,7.25,7.40,5.01,6.69,6.70,6.70
23.69,-0.54,-7.23,-0.53,-7.22,7.22,7.37,5.14,6.68,6.69,6.69
23.92,-0.51,-7.19,-0.51,-7.19,7.19,7.35,5.28,6.68,6.68,6.68
24.16,-0.49,-7.17,-0.49,-7.17,7.17,7.32,5.43,6.68,6.68,6.67
24.40,-0.47,-7.14,-0.47,-7.14,7.14,7.30,5.57,6.67,6.67,6.67
24.65,-0.44,-7.11,-0.44,-7.11,7.11,7.27,5.72,6.67,6.67,6.67
24.89,-0.42,-7.09,-0.42,-7.09,7.09,7.25,5.87,6.67,6.67,6.67
25.14,-0.39,-7.06,-0.40,-7.06,7.06,7.22,6.02,6.67,6.66,6.67
25.39,-0.37,-7.03,-0.37,-7.03,7.03,7.20,6.17,6.66,6.66,6.66
25.65,-0.35,-7.01,-0.35,-7.01,7.01,7.17,6.32,6.66,6.66,6.65
25.91,-0.32,-6.97,-0.32,-6.98,6.98,7.14,6.48,6.66,6.66,6.65
26.16,-0.30,-6.96,-0.30,-6.96,6.96,7.12,6.63,6.66,6.66,6.66
26.43,-0.28,-6.94,-0.28,-6.93,6.93,7.09,6.78,6.65,6.66,6.66
26.69,-0.25,-6.91,-0.26,-6.91,6.91,7.07,6.94,6.66,6.66,6.66
26.96,-0.23,-6.89,-0.23,-6.89,6.89,7.04,7.09,6.66,6.65,6.65
27.23,-0.21,-6.86,-0.21,-6.86,6.86,7.01,7.24,6.65,6.65,6.65
27.50,-0.19,-6.84,-0.19,-6.84,6.84,6.99,7.38,6.65,6.65,6.65
27.77,-0.17,-6.83,-0.17,-6.81,6.81,6.96,7.52,6.64,6.65,6.66
28.05,-0.14,-6.79,-0.15,-6.79,6.79,6.93,7.66,6.65,6.64,6.64
28.33,-0.13,-6.77,-0.13,-6.76,6.76,6.91,7.78,6.63,6.64,6.64
28.62,-0.10,-6.73,-0.11,-6.74,6.74,6.88,7.91,6.64,6.63,6.63
28.90,-0.09,-6.73,-0.09,-6.72,6.72,6.85,8.02,6.62,6.63,6.64
29.19,-0.07,-6.69,-0.07,-6.69,6.69,6.82,8.12,6.62,6.62,6.62
29.48,-0.05,-6.66,-0.05,-6.67,6.67,6.80,8.22,6.62,6.61,6.61
29.78,-0.03,-6.64,-0.04,-6.64,6.64,6.77,8.30,6.61,6.61,6.61
30.08,-0.02,-6.62,-0.02,-6.62,6.62,6.74,8.37,6.60,6.60,6.60
30.38,-0.00,-6.59,-0.00,-6.60,6.60,6.71,8.42,6.60,6.60,6.59
30.68,0.01,-6.58,0.01,-6.58,6.58,6.69,8.47,6.59,6.59,6.59
30.99,0.02,-6.56,0.02,-6.56,6.56,6.66,8.49,6.58,6.59,6.58
31.30,0.04,-6.54,0.04,-6.55,6.55,6.63,8.51,6.58,6.58,6.58
31.61,0.05,-6.52,0.05,-6.53,6.53,6.60,8.51,6.58,6.58,6.57
31.93,0.06,-6.51,0.06,-6.51,6.51,6.58,8.50,6.57,6.57,6.57
32.24,0.08,-6.49,0.08,-6.49,6.49,6.55,8.47,6.57,6.57,6.57
32.57,0.09,-6.47,0.09,-6.48,6.48,6.52,8.43,6.57,6.57,6.56
32.89,0.10,-6.47,0.10,-6.46,6.46,6.49,8.38,6.56,6.56,6.56
33.22,0.11,-6.45,0.11,-6.44,6.44,6.46,8.31,6.55,6.55,6.56
33.55,0.12,-6.43,0.12,-6.42,6.42,6.44,8.24,6.54,6.55,6.55
33.89,0.14,-6.40,0.14,-6.40,6.40,6.41,8.15,6.54,6.54,6.54
34.23,0.15,-6.37,0.15,-6.38,6.38,6.38,8.06,6.53,6.52,6.52
34.57,0.16,-6.36,0.16,-6.35,6.35,6.35,7.96,6.51,6.51,6.52
34.92,0.17,-6.32,0.17,-6.32,6.32,6.32,7.85,6.49,6.49,6.49
35.27,0.18,-6.31,0.18,-6.30,6.30,6.29,7.74,6.47,6.47,6.48
35.62,0.19,-6.26,0.18,-6.26,6.26,6.26,7.62,6.45,6.45,6.45
35.97,0.19,-6.24,0.19,-6.23,6.23,6.23,7.50,6.42,6.42,6.43
36.33,0.20,-6.20,0.20,-6.19,6.19,6.20,7.38,6.39,6.40,6.40
36.70,0.21,-6.16,0.21,-6.16,6.16,6.17,7.26,6.37,6.37,6.37
37.06,0.22,-6.12,0.22,-6.12,6.12,6.14,7.13,6.34,6.34,6.34
37.43,0.22,-6.08,0.22,-6.08,6.08,6.11,7.01,6.30,6.30,6.30
37.81,0.23,-6.04,0.23,-6.04,6.04,6.08,6.88,6.27,6.27,6.27
38.19,0.23,-6.00,0.23,-6.00,6.00,6.05,6.76,6.23,6.24,6.23
38.57,0.24,-5.96,0.24,-5.97,5.97,6.02,6.64,6.21,6.21,6.20
38.95,0.25,-5.93,0.24,-5.93,5.93,5.99,6.52,6.18,6.17,6.17
39.34,0.25,-5.89,0.25,-5.89,5.89,5.96,6.40,6.14,6.14,6.13
39.74,0.26,-5.85,0.25,-5.86,5.86,5.93,6.29,6.12,6.11,6.11
40.14,0.26,-5.82,0.26,-5.83,5.83,5.90,6.18,6.08,6.08,6.07
40.54,0.25,-5.80,0.26,-5.79,5.79,5.86,6.07,6.04,6.05,6.05
40.94,0.26,-5.76,0.26,-5.76,5.76,5.83,5.97,6.02,6.02,6.02
41.35,0.26,-5.73,0.26,-5.73,5.73,5.80,5.87,5.99,5.99,5.99
41.76,0.26,-5.70,0.26,-5.71,5.71,5.77,5.77,5.97,5.97,5.96
42.18,0.26,-5.69,0.26,-5.68,5.68,5.73,5.68,5.94,5.94,5.95
42.60,0.26,-5.65,0.26,-5.65,5.65,5.70,5.59,5.91,5.91,5.91
43.03,0.26,-5.62,0.26,-5.63,5.63,5.67,5.50,5.89,5.89,5.88
43.46,0.26,-5.60,0.26,-5.60,5.60,5.63,5.42,5.86,5.86,5.86
43.90,0.26,-5.57,0.25,-5.58,5.58,5.60,5.35,5.84,5.83,5.83
44.33,0.25,-5.55,0.25,-5.55,5.55,5.57,5.27,5.80,5.80,5.80
44.78,0.25,-5.52,0.25,-5.52,5.52,5.53,5.20,5.77,5.77,5.77
45.23,0.24,-5.51,0.24,-5.49,5.49,5.50,5.14,5.73,5.74,5.75
45.68,0.24,-5.47,0.24,-5.46,5.46,5.46,5.08,5.70,5.70,5.71
46.13,0.24,-5.42,0.24,-5.43,5.43,5.43,5.02,5.67,5.67,5.66
46.60,0.23,-5.40,0.23,-5.39,5.39,5.39,4.97,5.62,5.63,5.63
47.06,0.23,-5.36,0.23,-5.36,5.36,5.35,4.92,5.59,5.59,5.59
47.53,0.22,-5.33,0.22,-5.32,5.32,5.32,4.87,5.54,5.54,5.55
48.01,0.22,-5.28,0.22,-5.28,5.28,5.28,4.83,5.50,5.50,5.49
48.49,0.21,-5.24,0.21,-5.24,5.24,5.25,4.79,5.44,5.45,5.45
48.97,0.21,-5.19,0.21,-5.19,5.19,5.21,4.76,5.40,5.40,5.40
49.46,0.21,-5.15,0.20,-5.15,5.15,5.17,4.72,5.36,5.35,5.36
49.96,0.20,-5.09,0.20,-5.10,5.10,5.13,4.69,5.30,5.30,5.29
50.46,0.19,-5.05,0.19,-5.06,5.06,5.10,4.67,5.25,5.25,5.24
50.96,0.19,-5.00,0.19,-5.01,5.01,5.06,4.64,5.20,5.20,5.19
51.47,0.18,-4.97,0.18,-4.97,4.97,5.02,4.62,5.15,5.15,5.14
51.99,0.17,-4.92,0.17,-4.93,4.93,4.98,4.60,5.10,5.09,5.09
52.51,0.17,-4.87,0.16,-4.88,4.88,4.94,4.58,5.05,5.04,5.04
53.03,0.15,-4.85,0.15,-4.84,4.84,4.90,4.56,4.99,4.99,5.00
53.56,0.13,-4.82,0.14,-4.80,4.80,4.86,4.55,4.93,4.94,4.94
54.10,0.13,-4.76,0.12,-4.76,4.76,4.82,4.53,4.89,4.88,4.89
54.64,0.11,-4.73,0.11,-4.72,4.72,4.78,4.52,4.83,4.83,4.83
55.18,0.10,-4.67,0.10,-4.69,4.69,4.74,4.50,4.79,4.79,4.77
55.74,0.08,-4.64,0.08,-4.65,4.65,4.70,4.49,4.73,4.74,4.72
56.29,0.07,-4.61,0.07,-4.62,4.62,4.66,4.47,4.69,4.69,4.68
56.86,0.05,-4.58,0.06,-4.58,4.58,4.62,4.46,4.63,4.64,4.63
57.42,0.04,-4.53,0.04,-4.54,4.54,4.58,4.44,4.58,4.58,4.57
58.00,0.03,-4.49,0.03,-4.50,4.50,4.54,4.42,4.53,4.53,4.52
58.58,0.02,-4.46,0.01,-4.46,4.46,4.50,4.41,4.48,4.47,4.48
59.16,-0.01,-4.45,-0.00,-4.42,4.42,4.46,4.39,4.41,4.41,4.43
59.76,-0.02,-4.41,-0.02,-4.37,4.37,4.42,4.36,4.35,4.35,4.38
60.35,-0.04,-4.35,-0.04,-4.33,4.33,4.38,4.34,4.29,4.29,4.31
60.96,-0.05,-4.30,-0.05,-4.29,4.29,4.34,4.31,4.23,4.23,4.25
61.57,-0.07,-4.24,-0.07,-4.24,4.24,4.29,4.28,4.17,4.17,4.17
62.18,-0.09,-4.18,-0.09,-4.19,4.19,4.25,4.25,4.10,4.11,4.09
62.80,-0.10,-4.13,-0.11,-4.15,4.15,4.21,4.21,4.04,4.04,4.03
63.43,-0.12,-4.07,-0.12,-4.10,4.10,4.17,4.18,3.98,3.97,3.95
64.07,-0.14,-4.03,-0.14,-4.05,4.05,4.13,4.13,3.91,3.91,3.89
64.71,-0.16,-3.99,-0.16,-4.01,4.01,4.08,4.09,3.84,3.84,3.83
65.35,-0.19,-3.96,-0.18,-3.96,3.96,4.04,4.04,3.77,3.77,3.77
66.01,-0.21,-3.92,-0.20,-3.91,3.91,4.00,4.00,3.70,3.71,3.71
66.67,-0.22,-3.88,-0.23,-3.87,3.87,3.96,3.94,3.65,3.64,3.66
67.33,-0.25,-3.83,-0.25,-3.83,3.83,3.91,3.89,3.58,3.58,3.58
68.01,-0.27,-3.79,-0.27,-3.78,3.78,3.87,3.83,3.51,3.51,3.52
68.69,-0.29,-3.74,-0.29,-3.74,3.74,3.83,3.78,3.45,3.45,3.45
69.37,-0.31,-3.70,-0.31,-3.70,3.70,3.78,3.72,3.39,3.38,3.39
70.07,-0.34,-3.67,-0.34,-3.66,3.66,3.74,3.66,3.32,3.32,3.33
70.77,-0.36,-3.62,-0.36,-3.61,3.61,3.70,3.60,3.25,3.25,3.26
71.48,-0.38,-3.57,-0.39,-3.57,3.57,3.66,3.53,3.19,3.18,3.19
72.19,-0.41,-3.52,-0.41,-3.52,3.52,3.61,3.47,3.11,3.12,3.11
72.91,-0.43,-3.48,-0.43,-3.48,3.48,3.57,3.41,3.05,3.05,3.05
73.64,-0.46,-3.43,-0.46,-3.44,3.44,3.53,3.35,2.98,2.98,2.97
74.38,-0.49,-3.40,-0.48,-3.40,3.40,3.48,3.28,2.91,2.91,2.90
75.12,-0.51,-3.35,-0.51,-3.36,3.36,3.44,3.22,2.85,2.85,2.84
75.87,-0.53,-3.32,-0.54,-3.32,3.32,3.40,3.16,2.79,2.78,2.79
76.63,-0.56,-3.27,-0.56,-3.28,3.28,3.36,3.09,2.72,2.72,2.71
77.40,-0.59,-3.24,-0.59,-3.24,3.24,3.31,3.03,2.65,2.65,2.65
78.17,-0.61,-3.19,-0.61,-3.20,3.20,3.27,2.97,2.59,2.59,2.58
78.95,-0.64,-3.17,-0.64,-3.17,3.17,3.23,2.92,2.52,2.52,2.53
79.74,-0.67,-3.14,-0.67,-3.13,3.13,3.19,2.86,2.46,2.46,2.47
80.54,-0.70,-3.10,-0.70,-3.09,3.09,3.14,2.80,2.39,2.40,2.40
81.35,-0.72,-3.06,-0.72,-3.06,3.06,3.10,2.75,2.34,2.34,2.34
82.16,-0.75,-3.03,-0.75,-3.02,3.02,3.06,2.69,2.27,2.27,2.28
82.98,-0.78,-2.99,-0.78,-2.99,2.99,3.02,2.64,2.21,2.21,2.21
83.81,-0.80,-2.95,-0.81,-2.95,2.95,2.98,2.59,2.15,2.15,2.15
84.65,-0.83,-2.91,-0.83,-2.92,2.92,2.94,2.54,2.09,2.08,2.07
85.50,-0.86,-2.87,-0.86,-2.88,2.88,2.89,2.50,2.02,2.02,2.01
86.35,-0.89,-2.85,-0.89,-2.85,2.85,2.85,2.45,1.96,1.95,1.96
87.22,-0.92,-2.81,-0.92,-2.81,2.81,2.81,2.41,1.89,1.89,1.89
88.09,-0.95,-2.77,-0.95,-2.77,2.77,2.77,2.37,1.82,1.82,1.82
88.97,-0.98,-2.74,-0.98,-2.74,2.74,2.73,2.33,1.76,1.76,1.76
89.86,-1.01,-2.70,-1.01,-2.70,2.70,2.69,2.29,1.69,1.69,1.69
90.76,-1.04,-2.66,-1.04,-2.66,2.66,2.65,2.25,1.62,1.62,1.62
91.66,-1.08,-2.63,-1.07,-2.62,2.62,2.61,2.22,1.54,1.54,1.55
92.58,-1.11,-2.59,-1.11,-2.58,2.58,2.57,2.18,1.47,1.47,1.48
93.51,-1.14,-2.55,-1.14,-2.54,2.54,2.53,2.15,1.39,1.40,1.41
94.44,-1.17,-2.50,-1.17,-2.49,2.49,2.49,2.12,1.32,1.32,1.33
95.39,-1.20,-2.45,-1.20,-2.44,2.44,2.45,2.09,1.24,1.24,1.25
96.34,-1.23,-2.40,-1.23,-2.40,2.40,2.41,2.07,1.17,1.17,1.17
97.30,-1.27,-2.36,-1.27,-2.35,2.35,2.37,2.04,1.08,1.09,1.09
98.28,-1.29,-2.29,-1.30,-2.31,2.31,2.33,2.02,1.02,1.01,1.00
99.26,-1.33,-2.25,-1.33,-2.26,2.26,2.29,1.99,0.93,0.93,0.92
100.25,-1.36,-2.20,-1.36,-2.22,2.22,2.25,1.97,0.85,0.85,0.84
101.25,-1.40,-2.17,-1.40,-2.17,2.17,2.21,1.95,0.77,0.77,0.77
102.27,-1.43,-2.12,-1.43,-2.13,2.13,2.17,1.93,0.70,0.70,0.69
103.29,-1.46,-2.08,-1.46,-2.08,2.08,2.13,1.91,0.62,0.62,0.62
104.32,-1.49,-2.04,-1.49,-2.04,2.04,2.09,1.90,0.55,0.55,0.55
105.37,-1.53,-2.01,-1.53,-2.00,2.00,2.06,1.88,0.47,0.48,0.47
106.42,-1.56,-1.97,-1.56,-1.96,1.96,2.02,1.86,0.40,0.40,0.41
107.48,-1.59,-1.92,-1.59,-1.93,1.93,1.98,1.85,0.33,0.33,0.32
108.56,-1.63,-1.89,-1.63,-1.89,1.89,1.94,1.83,0.26,0.26,0.26
109.64,-1.66,-1.85,-1.66,-1.85,1.85,1.91,1.82,0.19,0.19,0.19
110.74,-1.70,-1.82,-1.70,-1.81,1.81,1.87,1.80,0.11,0.11,0.12
111.85,-1.72,-1.76,-1.73,-1.77,1.77,1.83,1.78,0.05,0.04,0.04
112.97,-1.76,-1.73,-1.77,-1.73,1.73,1.80,1.77,-0.03,-0.04,-0.03
114.10,-1.80,-1.70,-1.81,-1.69,1.69,1.76,1.75,-0.11,-0.12,-0.10
115.24,-1.84,-1.65,-1.84,-1.65,1.65,1.72,1.74,-0.19,-0.19,-0.19
116.39,-1.88,-1.60,-1.88,-1.61,1.61,1.69,1.72,-0.27,-0.27,-0.28
117.55,-1.92,-1.57,-1.92,-1.56,1.56,1.65,1.70,-0.36,-0.35,-0.35
118.73,-1.96,-1.51,-1.95,-1.52,1.52,1.62,1.68,-0.44,-0.44,-0.45
119.92,-2.00,-1.47,-1.99,-1.47,1.47,1.58,1.66,-0.53,-0.52,-0.53
121.12,-2.04,-1.44,-2.03,-1.43,1.43,1.55,1.64,-0.61,-0.60,-0.60
122.33,-2.07,-1.38,-2.07,-1.38,1.38,1.51,1.62,-0.69,-0.69,-0.69
123.55,-2.11,-1.34,-2.11,-1.33,1.33,1.48,1.60,-0.78,-0.78,-0.77
124.79,-2.14,-1.29,-2.15,-1.29,1.29,1.44,1.58,-0.85,-0.86,-0.85
126.03,-2.19,-1.26,-2.19,-1.24,1.24,1.41,1.55,-0.95,-0.95,-0.93
127.29,-2.22,-1.19,-2.23,-1.20,1.20,1.37,1.52,-1.03,-1.03,-1.03
128.57,-2.26,-1.14,-2.27,-1.15,1.15,1.34,1.50,-1.11,-1.12,-1.12
129.85,-2.31,-1.11,-2.31,-1.11,1.11,1.31,1.47,-1.20,-1.20,-1.20
131.15,-2.34,-1.05,-2.35,-1.07,1.07,1.27,1.44,-1.27,-1.28,-1.29
132.46,-2.40,-1.03,-2.39,-1.04,1.04,1.24,1.41,-1.37,-1.36,-1.37
133.79,-2.44,-1.00,-2.44,-1.00,1.00,1.21,1.38,-1.44,-1.44,-1.44
135.12,-2.48,-0.96,-2.48,-0.97,0.97,1.17,1.34,-1.51,-1.51,-1.52
136.48,-2.53,-0.95,-2.53,-0.94,0.94,1.14,1.31,-1.59,-1.58,-1.58
137.84,-2.57,-0.92,-2.57,-0.92,0.92,1.11,1.27,-1.65,-1.66,-1.65
139.22,-2.62,-0.89,-2.62,-0.90,0.90,1.07,1.24,-1.72,-1.72,-1.73
140.61,-2.67,-0.88,-2.67,-0.88,0.88,1.04,1.20,-1.79,-1.79,-1.79
142.02,-2.71,-0.86,-2.72,-0.86,0.86,1.01,1.17,-1.85,-1.85,-1.85
143.44,-2.76,-0.84,-2.76,-0.85,0.85,0.98,1.13,-1.91,-1.91,-1.92
144.87,-2.81,-0.84,-2.81,-0.84,0.84,0.95,1.09,-1.98,-1.98,-1.97
146.32,-2.86,-0.83,-2.86,-0.82,0.82,0.91,1.05,-2.04,-2.03,-2.03
147.78,-2.90,-0.81,-2.91,-0.81,0.81,0.88,1.01,-2.09,-2.09,-2.09
149.26,-2.95,-0.80,-2.95,-0.80,0.80,0.85,0.97,-2.15,-2.15,-2.15
150.75,-3.01,-0.79,-3.00,-0.79,0.79,0.82,0.93,-2.22,-2.21,-2.22
152.26,-3.05,-0.78,-3.05,-0.78,0.78,0.79,0.90,-2.28,-2.27,-2.27
153.78,-3.10,-0.77,-3.10,-0.76,0.76,0.76,0.86,-2.34,-2.33,-2.33
155.32,-3.14,-0.76,-3.14,-0.75,0.75,0.73,0.82,-2.39,-2.39,-2.39
156.88,-3.19,-0.74,-3.19,-0.74,0.74,0.69,0.78,-2.45,-2.45,-2.45
158.44,-3.23,-0.72,-3.23,-0.72,0.72,0.66,0.74,-2.51,-2.51,-2.51
160.03,-3.27,-0.70,-3.28,-0.71,0.71,0.63,0.70,-2.56,-2.57,-2.57
161.63,-3.33,-0.70,-3.33,-0.69,0.69,0.60,0.66,-2.64,-2.64,-2.63
163.24,-3.37,-0.66,-3.37,-0.67,0.67,0.57,0.62,-2.70,-2.70,-2.71
164.88,-3.41,-0.65,-3.42,-0.65,0.65,0.54,0.58,-2.76,-2.76,-2.76
166.53,-3.46,-0.63,-3.46,-0.64,0.64,0.51,0.55,-2.82,-2.82,-2.83
168.19,-3.51,-0.63,-3.50,-0.62,0.62,0.48,0.51,-2.89,-2.89,-2.88
169.87,-3.55,-0.61,-3.55,-0.60,0.60,0.45,0.47,-2.95,-2.95,-2.94
171.57,-3.59,-0.58,-3.59,-0.58,0.58,0.42,0.43,-3.01,-3.01,-3.01
173.29,-3.63,-0.56,-3.64,-0.57,0.57,0.39,0.39,-3.07,-3.07,-3.07
175.02,-3.68,-0.55,-3.68,-0.55,0.55,0.36,0.36,-3.13,-3.13,-3.13
176.77,-3.72,-0.53,-3.72,-0.53,0.53,0.33,0.32,-3.19,-3.19,-3.19
178.54,-3.76,-0.51,-3.77,-0.52,0.52,0.30,0.28,-3.24,-3.25,-3.25
180.32,-3.80,-0.49,-3.81,-0.50,0.50,0.27,0.25,-3.30,-3.31,-3.31
182.13,-3.85,-0.49,-3.85,-0.49,0.49,0.24,0.21,-3.36,-3.37,-3.36
183.95,-3.89,-0.47,-3.89,-0.47,0.47,0.21,0.17,-3.42,-3.42,-3.42
185.79,-3.93,-0.45,-3.93,-0.45,0.45,0.18,0.14,-3.48,-3.48,-3.48
187.65,-3.97,-0.44,-3.97,-0.44,0.44,0.16,0.10,-3.53,-3.54,-3.53
189.52,-4.02,-0.43,-4.02,-0.42,0.42,0.13,0.07,-3.60,-3.59,-3.59
191.42,-4.05,-0.40,-4.05,-0.41,0.41,0.10,0.03,-3.64,-3.65,-3.65
193.33,-4.09,-0.39,-4.09,-0.39,0.39,0.07,-0.00,-3.70,-3.70,-3.70
195.27,-4.13,-0.37,-4.13,-0.37,0.37,0.04,-0.04,-3.76,-3.75,-3.76
197.22,-4.16,-0.35,-4.16,-0.36,0.36,0.01,-0.07,-3.80,-3.80,-3.81
199.19,-4.20,-0.34,-4.19,-0.34,0.34,-0.02,-0.11,-3.86,-3.85,-3.86
201.18,-4.22,-0.31,-4.22,-0.32,0.32,-0.05,-0.14,-3.90,-3.90,-3.91
203.19,-4.24,-0.29,-4.25,-0.30,0.30,-0.08,-0.18,-3.94,-3.95,-3.95
205.23,-4.27,-0.28,-4.27,-0.27,0.27,-0.11,-0.21,-4.00,-4.00,-3.99
207.28,-4.29,-0.26,-4.29,-0.25,0.25,-0.14,-0.24,-4.04,-4.04,-4.03
209.35,-4.31,-0.23,-4.31,-0.22,0.22,-0.17,-0.28,-4.09,-4.08,-4.08
211.44,-4.32,-0.20,-4.32,-0.20,0.20,-0.20,-0.31,-4.12,-4.12,-4.12
213.56,-4.33,-0.16,-4.33,-0.17,0.17,-0.23,-0.34,-4.16,-4.16,-4.17
215.69,-4.34,-0.14,-4.34,-0.14,0.14,-0.25,-0.38,-4.20,-4.20,-4.20
217.85,-4.34,-0.10,-4.34,-0.10,0.10,-0.28,-0.41,-4.24,-4.24,-4.24
220.03,-4.34,-0.06,-4.34,-0.07,0.07,-0.31,-0.44,-4.27,-4.28,-4.28
222.23,-4.34,-0.02,-4.34,-0.03,0.03,-0.34,-0.47,-4.31,-4.31,-4.32
224.45,-4.34,0.01,-4.33,0.01,-0.01,-0.37,-0.50,-4.35,-4.35,-4.35
226.70,-4.33,0.05,-4.32,0.06,-0.06,-0.40,-0.53,-4.39,-4.38,-4.38
228.96,-4.31,0.09,-4.31,0.10,-0.10,-0.43,-0.56,-4.41,-4.41,-4.40
231.25,-4.29,0.14,-4.29,0.15,-0.15,-0.46,-0.59,-4.44,-4.44,-4.43
233.57,-4.27,0.19,-4.27,0.20,-0.20,-0.49,-0.62,-4.47,-4.47,-4.46
235.90,-4.24,0.26,-4.24,0.25,-0.25,-0.52,-0.64,-4.49,-4.50,-4.50
238.26,-4.22,0.31,-4.21,0.31,-0.31,-0.55,-0.67,-4.53,-4.52,-4.53
240.64,-4.18,0.36,-4.18,0.36,-0.36,-0.58,-0.70,-4.54,-4.55,-4.54
243.05,-4.14,0.43,-4.15,0.42,-0.42,-0.61,-0.72,-4.56,-4.57,-4.57
245.48,-4.11,0.48,-4.11,0.48,-0.48,-0.64,-0.74,-4.59,-4.59,-4.59
247.93,-4.07,0.55,-4.07,0.54,-0.54,-0.67,-0.77,-4.61,-4.61,-4.62
250.41,-4.02,0.61,-4.02,0.61,-0.61,-0.70,-0.79,-4.63,-4.63,-4.63
252.92,-3.97,0.67,-3.97,0.67,-0.67,-0.73,-0.81,-4.64,-4.65,-4.64
255.45,-3.93,0.74,-3.93,0.74,-0.74,-0.76,-0.83,-4.67,-4.67,-4.67
258.00,-3.88,0.80,-3.88,0.81,-0.81,-0.79,-0.85,-4.69,-4.68,-4.68
260.58,-3.82,0.87,-3.82,0.88,-0.88,-0.82,-0.87,-4.70,-4.70,-4.69
263.19,-3.77,0.95,-3.77,0.95,-0.95,-0.85,-0.89,-4.72,-4.72,-4.72
265.82,-3.71,1.02,-3.72,1.02,-1.02,-0.88,-0.91,-4.73,-4.73,-4.73
268.48,-3.66,1.08,-3.66,1.09,-1.09,-0.91,-0.93,-4.75,-4.75,-4.74
271.16,-3.60,1.16,-3.60,1.16,-1.16,-0.94,-0.94,-4.76,-4.76,-4.76
273.87,-3.55,1.22,-3.55,1.23,-1.23,-0.97,-0.96,-4.78,-4.78,-4.78
276.61,-3.49,1.31,-3.49,1.30,-1.30,-1.00,-0.98,-4.79,-4.79,-4.80
279.38,-3.44,1.38,-3.44,1.37,-1.37,-1.03,-0.99,-4.81,-4.81,-4.82
282.17,-3.38,1.45,-3.38,1.44,-1.44,-1.07,-1.01,-4.82,-4.82,-4.83
284.99,-3.33,1.50,-3.33,1.50,-1.50,-1.10,-1.03,-4.83,-4.83,-4.83
287.84,-3.28,1.56,-3.28,1.57,-1.57,-1.13,-1.04,-4.85,-4.84,-4.84
290.72,-3.22,1.64,-3.22,1.63,-1.63,-1.16,-1.06,-4.85,-4.85,-4.87
293.63,-3.17,1.69,-3.17,1.69,-1.69,-1.19,-1.08,-4.86,-4.87,-4.86
296.57,-3.12,1.75,-3.13,1.75,-1.75,-1.22,-1.10,-4.87,-4.88,-4.87
299.53,-3.08,1.80,-3.08,1.80,-1.80,-1.25,-1.11,-4.88,-4.88,-4.88
302.53,-3.04,1.85,-3.03,1.86,-1.86,-1.28,-1.13,-4.90,-4.89,-4.89
305.55,-2.99,1.91,-2.99,1.91,-1.91,-1.31,-1.15,-4.90,-4.90,-4.90
308.61,-2.95,1.95,-2.95,1.95,-1.95,-1.34,-1.17,-4.90,-4.90,-4.90
311.69,-2.91,2.00,-2.91,2.00,-2.00,-1.38,-1.19,-4.91,-4.91,-4.91
314.81,-2.87,2.05,-2.88,2.04,-2.04,-1.41,-1.21,-4.91,-4.91,-4.92
317.96,-2.85,2.07,-2.85,2.07,-2.07,-1.44,-1.24,-4.93,-4.92,-4.92
321.14,-2.81,2.11,-2.82,2.11,-2.11,-1.47,-1.26,-4.92,-4.92,-4.92
324.35,-2.79,2.15,-2.79,2.14,-2.14,-1.50,-1.28,-4.93,-4.93,-4.94
327.59,-2.76,2.16,-2.77,2.17,-2.17,-1.53,-1.31,-4.93,-4.93,-4.92
330.87,-2.74,2.19,-2.74,2.19,-2.19,-1.56,-1.33,-4.93,-4.93,-4.93
334.18,-2.72,2.22,-2.72,2.21,-2.21,-1.59,-1.36,-4.93,-4.94,-4.94
337.52,-2.71,2.23,-2.71,2.23,-2.23,-1.62,-1.39,-4.94,-4.94,-4.94
340.90,-2.69,2.25,-2.69,2.25,-2.25,-1.65,-1.42,-4.94,-4.94,-4.94
344.30,-2.68,2.26,-2.68,2.26,-2.26,-1.69,-1.45,-4.94,-4.94,-4.94
347.75,-2.67,2.26,-2.67,2.27,-2.27,-1.72,-1.48,-4.94,-4.94,-4.93
351.23,-2.66,2.29,-2.66,2.28,-2.28,-1.75,-1.51,-4.94,-4.94,-4.95
354.74,-2.65,2.28,-2.65,2.29,-2.29,-1.78,-1.55,-4.94,-4.94,-4.93
358.28,-2.65,2.29,-2.65,2.29,-2.29,-1.81,-1.58,-4.95,-4.94,-4.94
361.87,-2.64,2.30,-2.64,2.30,-2.30,-1.84,-1.62,-4.94,-4.94,-4.94
365.49,-2.64,2.30,-2.64,2.30,-2.30,-1.87,-1.66,-4.94,-4.94,-4.94
369.14,-2.64,2.30,-2.64,2.30,-2.30,-1.90,-1.70,-4.95,-4.94,-4.94
372.83,-2.63,2.31,-2.64,2.30,-2.30,-1.93,-1.74,-4.94,-4.94,-4.94
376.56,-2.64,2.30,-2.64,2.30,-2.30,-1.96,-1.78,-4.94,-4.94,-4.94
380.33,-2.64,2.31,-2.65,2.30,-2.30,-1.99,-1.82,-4.94,-4.94,-4.95
384.13,-2.65,2.30,-2.65,2.29,-2.29,-2.02,-1.87,-4.94,-4.94,-4.95
387.97,-2.66,2.28,-2.66,2.28,-2.28,-2.04,-1.91,-4.95,-4.95,-4.94
391.85,-2.67,2.27,-2.67,2.27,-2.27,-2.07,-1.96,-4.94,-4.94,-4.95
395.77,-2.68,2.27,-2.68,2.26,-2.26,-2.10,-2.00,-4.94,-4.95,-4.95
399.73,-2.69,2.26,-2.70,2.25,-2.25,-2.13,-2.05,-4.94,-4.95,-4.95
403.72,-2.71,2.23,-2.72,2.23,-2.23,-2.16,-2.10,-4.94,-4.95,-4.94
407.76,-2.73,2.22,-2.73,2.21,-2.21,-2.18,-2.15,-4.95,-4.95,-4.95
411.84,-2.75,2.20,-2.75,2.20,-2.20,-2.21,-2.19,-4.95,-4.95,-4.95
415.96,-2.77,2.17,-2.77,2.18,-2.18,-2.24,-2.24,-4.95,-4.95,-4.94
420.12,-2.79,2.16,-2.79,2.16,-2.16,-2.26,-2.29,-4.95,-4.95,-4.95
424.32,-2.81,2.14,-2.81,2.14,-2.14,-2.29,-2.34,-4.95,-4.95,-4.95
428.56,-2.83,2.12,-2.83,2.13,-2.13,-2.31,-2.39,-4.96,-4.95,-4.95
432.85,-2.85,2.10,-2.85,2.11,-2.11,-2.34,-2.43,-4.96,-4.96,-4.95
437.18,-2.87,2.09,-2.87,2.09,-2.09,-2.36,-2.48,-4.96,-4.96,-4.96
441.55,-2.88,2.08,-2.88,2.08,-2.08,-2.39,-2.52,-4.96,-4.96,-4.96
445.96,-2.90,2.06,-2.90,2.06,-2.06,-2.41,-2.57,-4.96,-4.96,-4.96
450.42,-2.91,2.06,-2.91,2.05,-2.05,-2.43,-2.61,-4.96,-4.96,-4.97
454.93,-2.92,2.05,-2.92,2.04,-2.04,-2.46,-2.65,-4.96,-4.96,-4.97
459.48,-2.94,2.03,-2.93,2.03,-2.03,-2.48,-2.68,-4.97,-4.96,-4.97
464.07,-2.94,2.02,-2.94,2.02,-2.02,-2.50,-2.72,-4.97,-4.97,-4.96
468.71,-2.95,2.01,-2.95,2.02,-2.02,-2.52,-2.75,-4.97,-4.97,-4.96
473.40,-2.95,2.01,-2.95,2.02,-2.02,-2.54,-2.78,-4.97,-4.97,-4.96
478.13,-2.95,2.01,-2.95,2.02,-2.02,-2.56,-2.80,-4.97,-4.96,-4.96
482.91,-2.94,2.03,-2.95,2.02,-2.02,-2.57,-2.83,-4.96,-4.96,-4.97
