frequency,raw,error,smoothed,error_smoothed,equalization,parametric_eq,fixed_band_eq,equalized_raw,equalized_smoothed,target
20.00,3.92,-2.66,3.91,-2.69,2.69,2.72,0.47,6.62,6.60,6.59
20.20,3.97,-2.65,3.96,-2.67,2.67,2.79,0.48,6.65,6.63,6.63
20.40,4.02,-2.64,4.01,-2.65,2.65,2.85,0.50,6.66,6.66,6.66
20.61,4.06,-2.62,4.06,-2.63,2.63,2.90,0.52,6.69,6.69,6.68
20.81,4.11,-2.61,4.12,-2.60,2.60,2.94,0.54,6.71,6.71,6.73
21.02,4.15,-2.61,4.17,-2.57,2.57,2.97,0.56,6.73,6.74,6.76
21.23,4.20,-2.57,4.22,-2.54,2.54,2.97,0.58,6.75,6.76,6.77
21.44,4.26,-2.54,4.27,-2.51,2.51,2.97,0.60,6.77,6.78,6.79
21.66,4.30,-2.51,4.32,-2.48,2.48,2.95,0.62,6.78,6.80,6.81
21.87,4.36,-2.47,4.37,-2.45,2.45,2.91,0.64,6.80,6.82,6.82
22.09,4.42,-2.43,4.42,-2.41,2.41,2.87,0.66,6.83,6.83,6.84
22.31,4.48,-2.37,4.47,-2.37,2.37,2.80,0.69,6.85,6.85,6.84
22.54,4.53,-2.32,4.52,-2.33,2.33,2.73,0.71,6.87,6.86,6.85
22.76,4.60,-2.26,4.58,-2.29,2.29,2.65,0.74,6.88,6.87,6.86
22.99,4.65,-2.20,4.63,-2.24,2.24,2.57,0.76,6.90,6.87,6.86
23.22,4.69,-2.17,4.68,-2.20,2.20,2.47,0.79,6.89,6.88,6.87
23.45,4.73,-2.14,4.73,-2.15,2.15,2.38,0.81,6.89,6.88,6.88
23.69,4.77,-2.11,4.78,-2.10,2.10,2.28,0.84,6.88,6.89,6.89
23.92,4.83,-2.07,4.84,-2.06,2.06,2.18,0.87,6.88,6.89,6.90
24.16,4.87,-2.03,4.89,-2.01,2.01,2.08,0.89,6.88,6.90,6.91
24.40,4.93,-1.99,4.94,-1.96,1.96,1.98,0.92,6.88,6.90,6.91
24.65,4.98,-1.92,5.00,-1.90,1.90,1.88,0.95,6.89,6.90,6.90
24.89,5.05,-1.86,5.06,-1.85,1.85,1.78,0.98,6.89,6.90,6.90
25.14,5.10,-1.81,5.11,-1.79,1.79,1.69,1.01,6.89,6.90,6.90
25.39,5.16,-1.74,5.17,-1.74,1.74,1.60,1.04,6.89,6.90,6.90
25.65,5.21,-1.68,5.22,-1.69,1.69,1.52,1.06,6.90,6.90,6.90
25.91,5.27,-1.61,5.27,-1.64,1.64,1.44,1.09,6.91,6.90,6.89
26.16,5.34,-1.56,5.31,-1.59,1.59,1.36,1.12,6.92,6.90,6.90
26.43,5.38,-1.51,5.35,-1.54,1.54,1.29,1.15,6.92,6.89,6.90
26.69,5.44,-1.45,5.40,-1.50,1.50,1.22,1.17,6.94,6.89,6.89
26.96,5.50,-1.39,5.44,-1.45,1.45,1.15,1.20,6.96,6.89,6.89
27.23,5.51,-1.38,5.48,-1.41,1.41,1.09,1.23,6.92,6.89,6.89
27.50,5.51,-1.38,5.52,-1.37,1.37,1.03,1.25,6.88,6.88,6.89
27.77,5.51,-1.36,5.56,-1.32,1.32,0.97,1.27,6.84,6.88,6.88
28.05,5.52,-1.35,5.60,-1.28,1.28,0.92,1.29,6.80,6.88,6.88
28.33,5.59,-1.27,5.65,-1.23,1.23,0.87,1.31,6.82,6.88,6.87
28.62,5.65,-1.22,5.70,-1.18,1.18,0.82,1.33,6.83,6.87,6.87
28.90,5.72,-1.15,5.75,-1.12,1.12,0.77,1.34,6.85,6.87,6.87
29.19,5.78,-1.08,5.80,-1.07,1.07,0.73,1.35,6.85,6.87,6.86
29.48,5.86,-1.01,5.85,-1.01,1.01,0.69,1.36,6.87,6.86,6.87
29.78,5.92,-0.94,5.90,-0.96,0.96,0.65,1.37,6.88,6.86,6.87
30.08,5.98,-0.88,5.95,-0.91,0.91,0.61,1.38,6.89,6.85,6.86
30.38,6.03,-0.82,6.00,-0.85,0.85,0.58,1.38,6.89,6.85,6.85
30.68,6.08,-0.77,6.04,-0.80,0.80,0.54,1.38,6.89,6.84,6.85
30.99,6.13,-0.70,6.09,-0.75,0.75,0.51,1.37,6.89,6.84,6.84
31.30,6.15,-0.68,6.13,-0.71,0.71,0.48,1.36,6.86,6.84,6.84
31.61,6.17,-0.66,6.16,-0.67,0.67,0.45,1.35,6.84,6.83,6.83
31.93,6.19,-0.63,6.19,-0.63,0.63,0.43,1.34,6.83,6.82,6.82
32.24,6.20,-0.60,6.22,-0.60,0.60,0.40,1.32,6.81,6.82,6.81
32.57,6.20,-0.60,6.24,-0.57,0.57,0.38,1.30,6.77,6.81,6.80
32.89,6.20,-0.60,6.27,-0.53,0.53,0.35,1.28,6.74,6.80,6.80
33.22,6.25,-0.54,6.31,-0.49,0.49,0.33,1.25,6.75,6.80,6.80
33.55,6.34,-0.46,6.34,-0.45,0.45,0.31,1.22,6.79,6.79,6.80
33.89,6.40,-0.39,6.37,-0.41,0.41,0.29,1.19,6.82,6.79,6.79
34.23,6.43,-0.35,6.41,-0.37,0.37,0.27,1.16,6.81,6.78,6.79
34.57,6.43,-0.34,6.44,-0.34,0.34,0.25,1.12,6.77,6.78,6.78
34.92,6.43,-0.34,6.47,-0.30,0.30,0.23,1.08,6.74,6.77,6.77
35.27,6.49,-0.27,6.50,-0.26,0.26,0.21,1.04,6.76,6.77,6.77
35.62,6.57,-0.18,6.54,-0.22,0.22,0.19,1.00,6.80,6.76,6.75
35.97,6.64,-0.11,6.58,-0.18,0.18,0.17,0.95,6.82,6.75,6.75
36.33,6.65,-0.09,6.61,-0.13,0.13,0.16,0.91,6.79,6.74,6.75
36.70,6.65,-0.09,6.65,-0.09,0.09,0.14,0.86,6.74,6.74,6.74
37.06,6.65,-0.07,6.68,-0.05,0.05,0.12,0.81,6.71,6.73,6.73
37.43,6.65,-0.07,6.71,-0.02,0.02,0.11,0.76,6.67,6.72,6.72
37.81,6.65,-0.06,6.73,0.02,-0.02,0.09,0.71,6.63,6.71,6.72
38.19,6.69,-0.01,6.76,0.06,-0.06,0.08,0.66,6.64,6.71,6.70
38.57,6.78,0.09,6.79,0.09,-0.09,0.06,0.60,6.69,6.70,6.70
38.95,6.87,0.18,6.81,0.11,-0.11,0.05,0.55,6.76,6.69,6.69
39.34,6.88,0.21,6.81,0.13,-0.13,0.03,0.50,6.75,6.68,6.68
39.74,6.88,0.23,6.82,0.15,-0.15,0.02,0.44,6.74,6.68,6.66
40.14,6.88,0.22,6.84,0.17,-0.17,0.00,0.39,6.71,6.67,6.66
40.54,6.88,0.23,6.86,0.21,-0.21,-0.01,0.33,6.68,6.65,6.66
40.94,6.88,0.23,6.89,0.25,-0.25,-0.02,0.28,6.64,6.64,6.65
41.35,6.88,0.25,6.91,0.28,-0.28,-0.04,0.22,6.60,6.62,6.63
41.76,6.88,0.27,6.93,0.33,-0.33,-0.05,0.16,6.56,6.60,6.62
42.18,6.88,0.29,6.95,0.37,-0.37,-0.07,0.11,6.52,6.58,6.60
42.60,6.88,0.31,6.97,0.41,-0.41,-0.08,0.05,6.48,6.56,6.57
43.03,6.89,0.34,6.98,0.45,-0.45,-0.10,-0.00,6.45,6.53,6.55
43.46,6.99,0.47,7.00,0.49,-0.49,-0.11,-0.06,6.50,6.51,6.52
43.90,7.09,0.62,7.02,0.54,-0.54,-0.13,-0.12,6.55,6.48,6.48
44.33,7.11,0.67,7.04,0.59,-0.59,-0.14,-0.18,6.52,6.45,6.45
44.78,7.11,0.71,7.06,0.64,-0.64,-0.16,-0.23,6.47,6.42,6.41
45.23,7.11,0.74,7.08,0.69,-0.69,-0.17,-0.29,6.43,6.39,6.38
45.68,7.11,0.77,7.10,0.73,-0.73,-0.19,-0.35,6.38,6.37,6.35
46.13,7.11,0.79,7.12,0.77,-0.77,-0.20,-0.40,6.34,6.34,6.33
46.60,7.11,0.80,7.13,0.81,-0.81,-0.22,-0.46,6.31,6.32,6.32
47.06,7.11,0.82,7.14,0.84,-0.84,-0.24,-0.52,6.28,6.30,6.29
47.53,7.11,0.83,7.15,0.86,-0.86,-0.26,-0.58,6.26,6.29,6.28
48.01,7.11,0.83,7.14,0.87,-0.87,-0.27,-0.63,6.25,6.28,6.28
48.49,7.11,0.85,7.13,0.86,-0.86,-0.29,-0.69,6.25,6.27,6.27
48.97,7.11,0.86,7.11,0.85,-0.85,-0.31,-0.75,6.27,6.27,6.26
49.46,7.11,0.87,7.10,0.84,-0.84,-0.33,-0.81,6.27,6.26,6.24
49.96,7.11,0.88,7.08,0.83,-0.83,-0.35,-0.86,6.28,6.25,6.24
50.46,7.11,0.87,7.07,0.82,-0.82,-0.38,-0.92,6.29,6.25,6.24
50.96,7.11,0.87,7.06,0.82,-0.82,-0.40,-0.98,6.29,6.23,6.25
51.47,7.06,0.83,7.04,0.82,-0.82,-0.42,-1.03,6.24,6.22,6.23
51.99,7.01,0.80,7.02,0.82,-0.82,-0.45,-1.09,6.20,6.20,6.22
52.51,6.95,0.74,6.99,0.81,-0.81,-0.48,-1.14,6.14,6.18,6.20
53.03,6.88,0.71,6.95,0.79,-0.79,-0.51,-1.20,6.09,6.15,6.17
53.56,6.88,0.75,6.91,0.79,-0.79,-0.54,-1.25,6.09,6.12,6.14
54.10,6.88,0.80,6.88,0.80,-0.80,-0.57,-1.30,6.09,6.08,6.09
54.64,6.88,0.85,6.85,0.81,-0.81,-0.60,-1.35,6.07,6.04,6.04
55.18,6.88,0.90,6.83,0.84,-0.84,-0.64,-1.40,6.05,5.99,5.99
55.74,6.88,0.96,6.81,0.87,-0.87,-0.68,-1.45,6.01,5.94,5.93
56.29,6.81,0.94,6.80,0.92,-0.92,-0.72,-1.50,5.90,5.88,5.88
56.86,6.69,0.87,6.79,0.97,-0.97,-0.76,-1.54,5.71,5.82,5.82
57.42,6.65,0.91,6.79,1.04,-1.04,-0.81,-1.59,5.62,5.75,5.74
58.00,6.65,0.97,6.80,1.11,-1.11,-0.86,-1.63,5.55,5.69,5.68
58.58,6.78,1.17,6.80,1.18,-1.18,-0.91,-1.66,5.60,5.62,5.62
59.16,6.88,1.32,6.81,1.26,-1.26,-0.97,-1.70,5.63,5.56,5.56
59.76,6.88,1.39,6.82,1.33,-1.33,-1.03,-1.73,5.55,5.49,5.50
60.35,6.88,1.46,6.83,1.40,-1.40,-1.10,-1.76,5.48,5.42,5.42
60.96,6.88,1.52,6.83,1.48,-1.48,-1.17,-1.79,5.41,5.36,5.37
61.57,6.88,1.60,6.84,1.55,-1.55,-1.25,-1.82,5.34,5.30,5.29
62.18,6.88,1.66,6.85,1.62,-1.62,-1.33,-1.84,5.27,5.23,5.22
62.80,6.88,1.71,6.87,1.70,-1.70,-1.41,-1.86,5.19,5.18,5.17
63.43,6.88,1.77,6.89,1.77,-1.77,-1.51,-1.87,5.11,5.12,5.11
64.07,6.88,1.82,6.90,1.83,-1.83,-1.60,-1.89,5.05,5.06,5.06
64.71,6.88,1.88,6.90,1.89,-1.89,-1.71,-1.90,5.00,5.01,5.01
65.35,6.88,1.93,6.90,1.94,-1.94,-1.81,-1.91,4.95,4.96,4.96
66.01,6.88,1.97,6.92,2.00,-2.00,-1.92,-1.91,4.88,4.92,4.91
66.67,6.88,2.02,6.95,2.07,-2.07,-2.03,-1.92,4.81,4.87,4.87
67.33,6.91,2.08,6.99,2.15,-2.15,-2.15,-1.92,4.76,4.83,4.83
68.01,6.98,2.19,7.03,2.23,-2.23,-2.26,-1.92,4.75,4.79,4.80
68.69,7.07,2.32,7.07,2.31,-2.31,-2.36,-1.92,4.76,4.76,4.76
69.37,7.11,2.40,7.10,2.38,-2.38,-2.46,-1.91,4.73,4.72,4.72
70.07,7.11,2.43,7.14,2.46,-2.46,-2.54,-1.91,4.66,4.68,4.68
70.77,7.11,2.45,7.18,2.53,-2.53,-2.62,-1.90,4.58,4.65,4.66
71.48,7.22,2.61,7.21,2.60,-2.60,-2.67,-1.89,4.63,4.61,4.62
72.19,7.34,2.76,7.22,2.65,-2.65,-2.70,-1.88,4.70,4.57,4.59
72.91,7.34,2.80,7.23,2.69,-2.69,-2.72,-1.87,4.65,4.54,4.54
73.64,7.34,2.84,7.23,2.73,-2.73,-2.71,-1.86,4.62,4.50,4.51
74.38,7.28,2.81,7.23,2.76,-2.76,-2.68,-1.85,4.52,4.46,4.47
75.12,7.16,2.74,7.21,2.78,-2.78,-2.63,-1.85,4.39,4.43,4.43
75.87,7.12,2.73,7.18,2.79,-2.79,-2.57,-1.84,4.34,4.39,4.39
76.63,7.11,2.76,7.15,2.79,-2.79,-2.49,-1.83,4.33,4.36,4.35
77.40,7.09,2.77,7.11,2.79,-2.79,-2.41,-1.82,4.31,4.33,4.32
78.17,7.02,2.74,7.07,2.77,-2.77,-2.32,-1.81,4.25,4.29,4.28
78.95,6.89,2.63,7.02,2.75,-2.75,-2.23,-1.80,4.14,4.27,4.26
79.74,6.88,2.64,6.96,2.72,-2.72,-2.14,-1.79,4.17,4.24,4.24
80.54,6.88,2.68,6.89,2.68,-2.68,-2.05,-1.79,4.21,4.21,4.21
81.35,6.88,2.70,6.82,2.62,-2.62,-1.96,-1.78,4.26,4.20,4.18
82.16,6.83,2.66,6.74,2.57,-2.57,-1.88,-1.78,4.27,4.18,4.17
82.98,6.65,2.49,6.66,2.50,-2.50,-1.81,-1.78,4.16,4.16,4.16
83.81,6.65,2.51,6.57,2.42,-2.42,-1.74,-1.78,4.23,4.15,4.15
84.65,6.51,2.38,6.48,2.34,-2.34,-1.68,-1.78,4.18,4.14,4.13
85.50,6.38,2.24,6.37,2.24,-2.24,-1.62,-1.78,4.14,4.13,4.13
86.35,6.26,2.14,6.25,2.13,-2.13,-1.57,-1.78,4.14,4.12,4.12
87.22,6.15,2.03,6.12,2.00,-2.00,-1.52,-1.78,4.14,4.12,4.11
88.09,5.91,1.80,5.97,1.86,-1.86,-1.48,-1.79,4.04,4.11,4.10
88.97,5.75,1.64,5.81,1.71,-1.71,-1.44,-1.80,4.04,4.10,4.11
89.86,5.59,1.50,5.65,1.56,-1.56,-1.41,-1.80,4.03,4.09,4.10
90.76,5.51,1.44,5.48,1.40,-1.40,-1.39,-1.81,4.12,4.08,4.08
91.66,5.36,1.29,5.30,1.24,-1.24,-1.36,-1.82,4.12,4.06,4.07
92.58,5.21,1.17,5.12,1.07,-1.07,-1.35,-1.84,4.14,4.05,4.04
93.51,5.02,0.98,4.93,0.90,-0.90,-1.33,-1.85,4.11,4.03,4.04
94.44,4.75,0.74,4.75,0.75,-0.75,-1.32,-1.87,4.01,4.00,4.01
95.39,4.52,0.53,4.57,0.60,-0.60,-1.32,-1.88,3.92,3.98,3.99
96.34,4.34,0.40,4.40,0.45,-0.45,-1.31,-1.90,3.89,3.95,3.94
97.30,4.23,0.32,4.24,0.32,-0.32,-1.31,-1.92,3.91,3.92,3.91
98.28,4.10,0.23,4.10,0.21,-0.21,-1.32,-1.94,3.89,3.88,3.88
99.26,3.89,0.05,3.95,0.11,-0.11,-1.32,-1.96,3.79,3.84,3.84
100.25,3.69,-0.11,3.81,0.00,-0.00,-1.33,-1.98,3.69,3.80,3.80
101.25,3.61,-0.14,3.67,-0.09,0.09,-1.34,-2.00,3.70,3.76,3.76
102.27,3.46,-0.24,3.52,-0.18,0.18,-1.36,-2.03,3.65,3.71,3.71
103.29,3.46,-0.19,3.39,-0.26,0.26,-1.38,-2.05,3.73,3.65,3.65
104.32,3.41,-0.19,3.27,-0.32,0.32,-1.40,-2.08,3.74,3.59,3.60
105.37,3.30,-0.25,3.17,-0.36,0.36,-1.42,-2.10,3.65,3.53,3.55
106.42,3.24,-0.23,3.09,-0.37,0.37,-1.44,-2.12,3.62,3.46,3.48
107.48,3.14,-0.26,3.02,-0.37,0.37,-1.47,-2.15,3.51,3.39,3.40
108.56,3.02,-0.29,2.98,-0.34,0.34,-1.50,-2.17,3.36,3.31,3.31
109.64,2.86,-0.37,2.97,-0.27,0.27,-1.53,-2.20,3.13,3.23,3.23
110.74,2.78,-0.37,2.99,-0.16,0.16,-1.57,-2.22,2.94,3.15,3.16
111.85,2.78,-0.30,3.05,-0.02,0.02,-1.61,-2.24,2.80,3.07,3.08
112.97,2.80,-0.18,3.14,0.15,-0.15,-1.64,-2.27,2.66,2.99,2.98
114.10,3.05,0.15,3.24,0.34,-0.34,-1.69,-2.29,2.71,2.91,2.91
115.24,3.31,0.49,3.37,0.54,-0.54,-1.73,-2.31,2.77,2.83,2.82
116.39,3.56,0.83,3.50,0.75,-0.75,-1.78,-2.32,2.81,2.75,2.73
117.55,3.71,1.05,3.66,0.98,-0.98,-1.83,-2.34,2.72,2.68,2.66
118.73,3.88,1.30,3.82,1.21,-1.21,-1.88,-2.35,2.67,2.61,2.58
119.92,4.14,1.61,3.99,1.44,-1.44,-1.94,-2.37,2.70,2.54,2.53
121.12,4.38,1.92,4.15,1.66,-1.66,-2.00,-2.38,2.72,2.48,2.47
122.33,4.52,2.11,4.29,1.87,-1.87,-2.06,-2.39,2.66,2.43,2.41
123.55,4.60,2.22,4.43,2.05,-2.05,-2.12,-2.39,2.55,2.37,2.38
124.79,4.60,2.28,4.54,2.22,-2.22,-2.19,-2.40,2.39,2.33,2.33
126.03,4.60,2.32,4.65,2.36,-2.36,-2.26,-2.40,2.24,2.28,2.29
127.29,4.60,2.36,4.73,2.49,-2.49,-2.33,-2.40,2.12,2.24,2.25
128.57,4.65,2.46,4.80,2.60,-2.60,-2.40,-2.39,2.05,2.19,2.20
129.85,4.81,2.66,4.85,2.70,-2.70,-2.48,-2.39,2.11,2.15,2.16
131.15,4.83,2.72,4.91,2.80,-2.80,-2.56,-2.38,2.04,2.11,2.12
132.46,4.83,2.76,4.96,2.89,-2.89,-2.64,-2.37,1.94,2.07,2.07
133.79,4.97,2.94,5.01,2.98,-2.98,-2.73,-2.36,1.99,2.03,2.03
135.12,5.08,3.10,5.07,3.08,-3.08,-2.81,-2.35,2.00,1.99,1.98
136.48,5.23,3.29,5.13,3.19,-3.19,-2.90,-2.33,2.04,1.94,1.94
137.84,5.29,3.39,5.20,3.30,-3.30,-2.98,-2.32,1.99,1.90,1.90
139.22,5.29,3.46,5.27,3.42,-3.42,-3.07,-2.30,1.88,1.85,1.84
140.61,5.29,3.51,5.33,3.53,-3.53,-3.16,-2.28,1.77,1.81,1.78
142.02,5.29,3.54,5.39,3.64,-3.64,-3.25,-2.27,1.66,1.75,1.75
143.44,5.30,3.60,5.44,3.74,-3.74,-3.34,-2.25,1.56,1.70,1.70
144.87,5.47,3.82,5.47,3.83,-3.83,-3.42,-2.23,1.64,1.64,1.65
146.32,5.50,3.91,5.49,3.91,-3.91,-3.50,-2.21,1.59,1.58,1.60
147.78,5.51,3.97,5.49,3.98,-3.98,-3.59,-2.19,1.54,1.51,1.55
149.26,5.51,4.04,5.45,4.01,-4.01,-3.66,-2.17,1.50,1.44,1.47
150.75,5.41,4.03,5.39,4.02,-4.02,-3.73,-2.15,1.40,1.37,1.39
152.26,5.32,4.01,5.28,3.99,-3.99,-3.80,-2.13,1.33,1.29,1.31
153.78,5.29,4.07,5.15,3.94,-3.94,-3.86,-2.11,1.36,1.21,1.23
155.32,5.24,4.12,4.99,3.86,-3.86,-3.91,-2.10,1.38,1.13,1.13
156.88,5.07,4.02,4.82,3.76,-3.76,-3.96,-2.08,1.30,1.05,1.04
158.44,4.80,3.84,4.64,3.66,-3.66,-3.99,-2.07,1.14,0.98,0.96
160.03,4.54,3.66,4.45,3.54,-3.54,-4.02,-2.05,1.00,0.91,0.88
161.63,4.27,3.46,4.27,3.44,-3.44,-4.04,-2.04,0.84,0.84,0.82
163.24,4.01,3.26,4.13,3.35,-3.35,-4.04,-2.03,0.66,0.78,0.76
164.88,3.75,3.04,4.01,3.28,-3.28,-4.04,-2.02,0.47,0.73,0.71
166.53,3.53,2.86,3.92,3.23,-3.23,-4.03,-2.01,0.29,0.69,0.67
168.19,3.46,2.83,3.87,3.22,-3.22,-4.00,-2.00,0.25,0.66,0.63
169.87,3.52,2.92,3.85,3.22,-3.22,-3.97,-2.00,0.31,0.63,0.61
171.57,3.66,3.07,3.85,3.23,-3.23,-3.93,-1.99,0.43,0.61,0.59
173.29,3.83,3.24,3.88,3.27,-3.27,-3.88,-1.99,0.56,0.60,0.59
175.02,4.06,3.46,3.93,3.34,-3.34,-3.82,-1.99,0.73,0.59,0.60
176.77,4.14,3.55,3.99,3.41,-3.41,-3.75,-1.99,0.73,0.58,0.59
178.54,4.33,3.74,4.07,3.49,-3.49,-3.68,-1.99,0.84,0.58,0.59
180.32,4.38,3.79,4.14,3.57,-3.57,-3.60,-1.99,0.82,0.57,0.59
182.13,4.38,3.79,4.21,3.64,-3.64,-3.51,-2.00,0.75,0.57,0.60
183.95,4.38,3.80,4.25,3.69,-3.69,-3.42,-2.01,0.69,0.56,0.59
185.79,4.38,3.81,4.28,3.72,-3.72,-3.33,-2.02,0.66,0.55,0.57
187.65,4.21,3.67,4.26,3.73,-3.73,-3.24,-2.03,0.49,0.54,0.55
189.52,4.15,3.63,4.23,3.71,-3.71,-3.14,-2.04,0.45,0.52,0.52
191.42,4.09,3.60,4.17,3.66,-3.66,-3.04,-2.05,0.43,0.50,0.50
193.33,3.97,3.50,4.08,3.60,-3.60,-2.95,-2.06,0.38,0.48,0.48
195.27,3.92,3.46,3.99,3.53,-3.53,-2.85,-2.08,0.40,0.46,0.46
197.22,3.92,3.48,3.90,3.46,-3.46,-2.75,-2.09,0.47,0.44,0.44
199.19,3.78,3.38,3.79,3.38,-3.38,-2.65,-2.11,0.41,0.42,0.40
201.18,3.69,3.30,3.69,3.30,-3.30,-2.56,-2.13,0.40,0.39,0.39
203.19,3.65,3.28,3.58,3.21,-3.21,-2.46,-2.15,0.44,0.37,0.37
205.23,3.52,3.18,3.47,3.12,-3.12,-2.37,-2.16,0.40,0.35,0.34
207.28,3.38,3.05,3.35,3.02,-3.02,-2.28,-2.18,0.36,0.33,0.33
209.35,3.27,2.97,3.23,2.93,-2.93,-2.19,-2.20,0.35,0.31,0.30
211.44,3.11,2.84,3.11,2.82,-2.82,-2.10,-2.22,0.29,0.29,0.28
213.56,3.02,2.75,3.01,2.73,-2.73,-2.02,-2.24,0.29,0.27,0.27
215.69,3.01,2.75,2.92,2.66,-2.66,-1.93,-2.26,0.35,0.25,0.26
217.85,2.80,2.57,2.84,2.60,-2.60,-1.85,-2.27,0.20,0.24,0.24
220.03,2.69,2.47,2.78,2.56,-2.56,-1.78,-2.29,0.14,0.22,0.22
222.23,2.59,2.39,2.74,2.53,-2.53,-1.70,-2.30,0.06,0.21,0.20
224.45,2.55,2.36,2.73,2.53,-2.53,-1.62,-2.32,0.02,0.20,0.20
226.70,2.55,2.36,2.73,2.55,-2.55,-1.55,-2.33,0.01,0.19,0.19
228.96,2.55,2.38,2.75,2.58,-2.58,-1.48,-2.33,-0.02,0.18,0.18
231.25,2.72,2.55,2.79,2.62,-2.62,-1.41,-2.34,0.11,0.17,0.18
233.57,2.81,2.65,2.83,2.66,-2.66,-1.35,-2.34,0.15,0.16,0.16
235.90,3.00,2.85,2.86,2.70,-2.70,-1.28,-2.34,0.31,0.16,0.15
238.26,3.01,2.86,2.89,2.73,-2.73,-1.22,-2.34,0.29,0.16,0.15
240.64,3.01,2.86,2.90,2.74,-2.74,-1.16,-2.33,0.27,0.16,0.15
243.05,3.01,2.85,2.89,2.74,-2.74,-1.10,-2.32,0.28,0.16,0.16
245.48,3.01,2.85,2.87,2.71,-2.71,-1.04,-2.31,0.30,0.16,0.16
247.93,3.01,2.84,2.84,2.67,-2.67,-0.99,-2.29,0.34,0.16,0.17
250.41,2.82,2.66,2.77,2.61,-2.61,-0.93,-2.27,0.21,0.17,0.16
252.92,2.73,2.56,2.70,2.53,-2.53,-0.88,-2.24,0.21,0.17,0.17
255.45,2.58,2.39,2.59,2.42,-2.42,-0.83,-2.21,0.17,0.18,0.19
258.00,2.42,2.23,2.47,2.29,-2.29,-0.77,-2.18,0.14,0.19,0.19
260.58,2.18,1.99,2.34,2.14,-2.14,-0.72,-2.14,0.04,0.20,0.20
263.19,2.09,1.89,2.20,1.99,-1.99,-0.67,-2.10,0.10,0.21,0.21
265.82,1.89,1.68,2.06,1.84,-1.84,-0.62,-2.05,0.06,0.22,0.21
268.48,1.87,1.64,1.92,1.68,-1.68,-0.57,-2.00,0.19,0.24,0.23
271.16,1.87,1.63,1.78,1.53,-1.53,-0.52,-1.95,0.35,0.25,0.25
273.87,1.78,1.52,1.64,1.37,-1.37,-0.48,-1.90,0.41,0.27,0.26
276.61,1.53,1.24,1.51,1.22,-1.22,-0.43,-1.84,0.31,0.29,0.29
279.38,1.43,1.13,1.40,1.08,-1.08,-0.38,-1.78,0.35,0.31,0.31
282.17,1.24,0.91,1.27,0.94,-0.94,-0.33,-1.72,0.31,0.33,0.33
284.99,1.13,0.78,1.15,0.80,-0.80,-0.28,-1.65,0.34,0.36,0.35
287.84,0.97,0.60,1.04,0.65,-0.65,-0.24,-1.58,0.32,0.38,0.38
290.72,0.88,0.47,0.93,0.51,-0.51,-0.19,-1.51,0.37,0.41,0.41
293.63,0.75,0.32,0.80,0.37,-0.37,-0.14,-1.44,0.39,0.44,0.44
296.57,0.73,0.27,0.68,0.21,-0.21,-0.09,-1.37,0.52,0.46,0.46
299.53,0.56,0.08,0.55,0.06,-0.06,-0.04,-1.30,0.50,0.49,0.49
302.53,0.50,0.00,0.43,-0.08,0.08,0.01,-1.22,0.58,0.51,0.50
305.55,0.30,-0.23,0.32,-0.21,0.21,0.06,-1.15,0.52,0.53,0.54
308.61,0.22,-0.33,0.21,-0.33,0.33,0.12,-1.07,0.56,0.54,0.55
311.69,0.06,-0.51,0.10,-0.46,0.46,0.17,-0.99,0.52,0.56,0.57
314.81,0.04,-0.55,0.01,-0.56,0.56,0.23,-0.92,0.61,0.57,0.60
317.96,-0.10,-0.69,-0.09,-0.67,0.67,0.29,-0.84,0.58,0.58,0.59
321.14,-0.19,-0.77,-0.18,-0.77,0.77,0.35,-0.76,0.59,0.59,0.59
324.35,-0.36,-0.95,-0.28,-0.88,0.88,0.41,-0.68,0.52,0.60,0.60
327.59,-0.41,-1.01,-0.37,-0.98,0.98,0.47,-0.60,0.57,0.61,0.60
330.87,-0.41,-1.01,-0.45,-1.07,1.07,0.54,-0.52,0.66,0.62,0.61
334.18,-0.51,-1.12,-0.51,-1.14,1.14,0.61,-0.45,0.64,0.63,0.62
337.52,-0.63,-1.25,-0.57,-1.21,1.21,0.68,-0.37,0.59,0.64,0.62
340.90,-0.64,-1.29,-0.63,-1.28,1.28,0.76,-0.29,0.64,0.65,0.65
344.30,-0.64,-1.29,-0.68,-1.35,1.35,0.83,-0.21,0.71,0.67,0.66
347.75,-0.70,-1.37,-0.73,-1.41,1.41,0.91,-0.13,0.72,0.68,0.67
351.23,-0.83,-1.53,-0.78,-1.48,1.48,1.00,-0.05,0.66,0.70,0.70
354.74,-0.87,-1.58,-0.82,-1.55,1.55,1.08,0.03,0.68,0.72,0.72
358.28,-0.87,-1.61,-0.86,-1.61,1.61,1.17,0.11,0.74,0.75,0.75
361.87,-0.87,-1.63,-0.90,-1.67,1.67,1.26,0.19,0.80,0.77,0.76
365.49,-0.87,-1.66,-0.94,-1.73,1.73,1.36,0.27,0.86,0.79,0.79
369.14,-0.89,-1.70,-0.97,-1.78,1.78,1.45,0.35,0.90,0.81,0.81
372.83,-1.03,-1.86,-1.00,-1.83,1.83,1.55,0.42,0.80,0.83,0.84
376.56,-1.09,-1.94,-1.02,-1.87,1.87,1.64,0.50,0.79,0.85,0.86
380.33,-1.09,-1.97,-1.04,-1.91,1.91,1.73,0.58,0.83,0.87,0.88
384.13,-1.09,-1.99,-1.06,-1.95,1.95,1.82,0.66,0.86,0.89,0.90
387.97,-1.09,-2.00,-1.08,-1.98,1.98,1.91,0.74,0.90,0.91,0.91
391.85,-1.09,-2.00,-1.09,-2.01,2.01,1.99,0.82,0.92,0.92,0.92
395.77,-1.09,-2.01,-1.11,-2.03,2.03,2.06,0.90,0.95,0.93,0.93
399.73,-1.09,-2.02,-1.11,-2.05,2.05,2.12,0.98,0.97,0.94,0.94
403.72,-1.09,-2.03,-1.11,-2.06,2.06,2.18,1.05,0.97,0.95,0.94
407.76,-1.09,-2.04,-1.10,-2.06,2.06,2.22,1.13,0.97,0.95,0.95
411.84,-1.09,-2.05,-1.09,-2.04,2.04,2.25,1.21,0.96,0.96,0.96
415.96,-1.09,-2.06,-1.06,-2.02,2.02,2.26,1.28,0.94,0.96,0.97
420.12,-1.09,-2.05,-1.04,-2.00,2.00,2.27,1.36,0.92,0.96,0.97
424.32,-1.09,-2.05,-1.03,-1.99,1.99,2.26,1.43,0.91,0.97,0.97
428.56,-1.09,-2.05,-1.02,-1.98,1.98,2.24,1.50,0.90,0.97,0.97
432.85,-1.00,-1.96,-1.00,-1.97,1.97,2.21,1.57,0.97,0.97,0.97
437.18,-0.89,-1.86,-0.97,-1.95,1.95,2.17,1.64,1.06,0.98,0.97
441.55,-0.87,-1.85,-0.95,-1.93,1.93,2.12,1.71,1.06,0.98,0.98
445.96,-0.87,-1.85,-0.92,-1.90,1.90,2.07,1.77,1.04,0.99,0.98
450.42,-0.87,-1.86,-0.89,-1.88,1.88,2.02,1.84,1.02,1.00,0.99
454.93,-0.87,-1.87,-0.86,-1.87,1.87,1.96,1.90,1.00,1.01,1.00
459.48,-0.87,-1.87,-0.83,-1.85,1.85,1.90,1.95,0.99,1.02,1.01
464.07,-0.87,-1.89,-0.80,-1.83,1.83,1.84,2.01,0.97,1.03,1.03
468.71,-0.87,-1.91,-0.77,-1.81,1.81,1.78,2.06,0.95,1.05,1.05
473.40,-0.73,-1.78,-0.73,-1.80,1.80,1.73,2.11,1.07,1.07,1.06
478.13,-0.65,-1.73,-0.70,-1.79,1.79,1.68,2.15,1.14,1.09,1.09
482.91,-0.64,-1.74,-0.67,-1.78,1.78,1.63,2.19,1.14,1.11,1.11
487.74,-0.64,-1.77,-0.64,-1.78,1.78,1.58,2.23,1.14,1.13,1.13
492.62,-0.64,-1.80,-0.61,-1.77,1.77,1.54,2.26,1.13,1.16,1.16
497.55,-0.64,-1.82,-0.57,-1.76,1.76,1.50,2.29,1.12,1.18,1.18
502.52,-0.51,-1.72,-0.54,-1.74,1.74,1.46,2.32,1.24,1.21,1.21
507.55,-0.42,-1.65,-0.50,-1.73,1.73,1.43,2.34,1.31,1.23,1.23
512.62,-0.41,-1.67,-0.46,-1.71,1.71,1.40,2.36,1.31,1.26,1.26
517.75,-0.41,-1.69,-0.42,-1.70,1.70,1.38,2.37,1.29,1.28,1.28
522.93,-0.41,-1.72,-0.39,-1.69,1.69,1.36,2.38,1.28,1.30,1.31
528.16,-0.41,-1.73,-0.36,-1.68,1.68,1.34,2.39,1.27,1.32,1.32
533.44,-0.41,-1.74,-0.33,-1.67,1.67,1.33,2.39,1.26,1.34,1.34
538.77,-0.41,-1.76,-0.30,-1.65,1.65,1.32,2.39,1.25,1.35,1.36
544.16,-0.25,-1.61,-0.28,-1.65,1.65,1.31,2.39,1.40,1.36,1.37
