frequency,raw,error,smoothed,error_smoothed,equalization,parametric_eq,fixed_band_eq,equalized_raw,equalized_smoothed,target
20.00,-22.37,-21.27,-22.37,-21.30,21.30,21.16,9.16,-1.07,-1.08,-1.10
20.20,-22.23,-21.22,-22.23,-21.23,21.23,21.03,9.34,-1.00,-1.00,-1.01
20.40,-22.08,-21.15,-22.08,-21.16,21.16,20.91,9.52,-0.92,-0.93,-0.93
20.61,-21.94,-21.08,-21.94,-21.08,21.08,20.78,9.71,-0.86,-0.85,-0.86
20.81,-21.79,-21.02,-21.79,-21.01,21.01,20.66,9.91,-0.78,-0.79,-0.77
21.02,-21.65,-20.96,-21.65,-20.93,20.93,20.54,10.10,-0.72,-0.72,-0.69
21.23,-21.50,-20.87,-21.50,-20.84,20.84,20.41,10.31,-0.66,-0.65,-0.63
21.44,-21.35,-20.78,-21.35,-20.76,20.76,20.29,10.51,-0.59,-0.59,-0.57
21.66,-21.20,-20.68,-21.21,-20.67,20.67,20.17,10.73,-0.53,-0.54,-0.52
21.87,-21.06,-20.59,-21.06,-20.58,20.58,20.06,10.95,-0.48,-0.48,-0.47
22.09,-20.91,-20.49,-20.91,-20.48,20.48,19.94,11.17,-0.42,-0.43,-0.42
22.31,-20.76,-20.39,-20.76,-20.39,20.39,19.83,11.40,-0.37,-0.37,-0.37
22.54,-20.61,-20.28,-20.61,-20.28,20.28,19.71,11.64,-0.33,-0.33,-0.33
22.76,-20.46,-20.17,-20.47,-20.18,20.18,19.60,11.88,-0.28,-0.29,-0.29
22.99,-20.32,-20.06,-20.32,-20.07,20.07,19.49,12.13,-0.25,-0.25,-0.26
23.22,-20.17,-19.95,-20.17,-19.96,19.96,19.38,12.39,-0.22,-0.21,-0.22
23.45,-20.02,-19.84,-20.02,-19.84,19.84,19.27,12.65,-0.18,-0.17,-0.18
23.69,-19.87,-19.73,-19.87,-19.73,19.73,19.17,12.93,-0.14,-0.14,-0.14
23.92,-19.72,-19.62,-19.72,-19.62,19.62,19.06,13.21,-0.10,-0.10,-0.10
24.16,-19.57,-19.52,-19.57,-19.50,19.50,18.96,13.49,-0.07,-0.07,-0.05
24.40,-19.42,-19.40,-19.42,-19.39,19.39,18.86,13.79,-0.03,-0.03,-0.02
24.65,-19.27,-19.27,-19.27,-19.28,19.28,18.76,14.10,0.00,0.00,-0.00
24.89,-19.12,-19.15,-19.13,-19.16,19.16,18.65,14.42,0.04,0.04,0.03
25.14,-18.98,-19.05,-18.98,-19.05,19.05,18.56,14.74,0.07,0.07,0.07
25.39,-18.83,-18.93,-18.83,-18.93,18.93,18.46,15.08,0.10,0.10,0.10
25.65,-18.68,-18.82,-18.68,-18.82,18.82,18.36,15.43,0.13,0.13,0.14
25.91,-18.53,-18.69,-18.54,-18.70,18.70,18.26,15.78,0.17,0.16,0.16
26.16,-18.39,-18.58,-18.39,-18.58,18.58,18.17,16.15,0.19,0.20,0.19
26.43,-18.24,-18.47,-18.24,-18.47,18.47,18.07,16.53,0.22,0.22,0.23
26.69,-18.10,-18.36,-18.10,-18.35,18.35,17.98,16.92,0.25,0.25,0.26
26.96,-17.95,-18.24,-17.95,-18.24,18.24,17.89,17.32,0.28,0.28,0.29
27.23,-17.81,-18.13,-17.81,-18.12,18.12,17.79,17.73,0.31,0.32,0.32
27.50,-17.66,-18.01,-17.66,-18.01,18.01,17.70,18.15,0.35,0.35,0.35
27.77,-17.52,-17.89,-17.52,-17.89,17.89,17.61,18.58,0.37,0.38,0.37
28.05,-17.37,-17.78,-17.37,-17.78,17.78,17.52,19.01,0.41,0.41,0.41
28.33,-17.23,-17.66,-17.23,-17.67,17.67,17.43,19.44,0.44,0.44,0.43
28.62,-17.09,-17.55,-17.09,-17.55,17.55,17.34,19.88,0.46,0.47,0.46
28.90,-16.95,-17.45,-16.95,-17.45,17.45,17.24,20.30,0.49,0.50,0.50
29.19,-16.81,-17.33,-16.81,-17.34,17.34,17.15,20.71,0.52,0.52,0.52
29.48,-16.67,-17.24,-16.68,-17.23,17.23,17.06,21.10,0.56,0.55,0.57
29.78,-16.53,-17.11,-16.54,-17.12,17.12,16.97,21.45,0.59,0.58,0.58
30.08,-16.39,-17.00,-16.41,-17.02,17.02,16.88,21.76,0.63,0.61,0.61
30.38,-16.27,-16.91,-16.28,-16.92,16.92,16.79,22.01,0.64,0.64,0.64
30.68,-16.15,-16.82,-16.15,-16.82,16.82,16.70,22.19,0.66,0.66,0.67
30.99,-16.03,-16.72,-16.03,-16.72,16.72,16.60,22.30,0.68,0.69,0.69
31.30,-15.90,-16.61,-15.90,-16.62,16.62,16.51,22.33,0.71,0.71,0.71
31.61,-15.78,-16.52,-15.78,-16.52,16.52,16.42,22.28,0.73,0.74,0.74
31.93,-15.66,-16.42,-15.65,-16.42,16.42,16.33,22.15,0.75,0.76,0.76
32.24,-15.54,-16.32,-15.53,-16.32,16.32,16.23,21.95,0.78,0.78,0.78
32.57,-15.41,-16.22,-15.41,-16.22,16.22,16.14,21.69,0.80,0.81,0.81
32.89,-15.29,-16.12,-15.29,-16.11,16.11,16.04,21.39,0.82,0.83,0.83
33.22,-15.17,-16.02,-15.17,-16.01,16.01,15.95,21.04,0.84,0.85,0.85
33.55,-15.04,-15.91,-15.05,-15.91,15.91,15.85,20.68,0.87,0.86,0.87
33.89,-14.92,-15.80,-14.93,-15.81,15.81,15.75,20.29,0.88,0.88,0.88
34.23,-14.80,-15.70,-14.81,-15.70,15.70,15.66,19.90,0.90,0.89,0.90
34.57,-14.68,-15.59,-14.69,-15.59,15.59,15.56,19.50,0.91,0.91,0.91
34.92,-14.57,-15.49,-14.57,-15.49,15.49,15.46,19.11,0.91,0.92,0.92
35.27,-14.45,-15.39,-14.45,-15.38,15.38,15.36,18.72,0.93,0.93,0.94
35.62,-14.33,-15.26,-14.33,-15.27,15.27,15.26,18.33,0.94,0.94,0.93
35.97,-14.22,-15.16,-14.22,-15.16,15.16,15.16,17.96,0.94,0.94,0.94
36.33,-14.10,-15.06,-14.10,-15.05,15.05,15.06,17.60,0.95,0.95,0.96
36.70,-13.99,-14.94,-13.98,-14.93,14.93,14.95,17.24,0.94,0.95,0.95
37.06,-13.87,-14.82,-13.87,-14.82,14.82,14.85,16.90,0.95,0.95,0.95
37.43,-13.75,-14.70,-13.76,-14.71,14.71,14.74,16.57,0.96,0.95,0.95
37.81,-13.64,-14.59,-13.64,-14.59,14.59,14.64,16.26,0.95,0.95,0.95
38.19,-13.52,-14.47,-13.53,-14.47,14.47,14.53,15.95,0.95,0.95,0.95
38.57,-13.41,-14.36,-13.41,-14.35,14.35,14.43,15.66,0.94,0.94,0.95
38.95,-13.29,-14.24,-13.30,-14.24,14.24,14.32,15.37,0.95,0.94,0.95
39.34,-13.18,-14.11,-13.18,-14.12,14.12,14.21,15.10,0.94,0.94,0.93
39.74,-13.07,-14.00,-13.07,-14.00,14.00,14.10,14.84,0.93,0.93,0.93
40.14,-12.96,-13.88,-12.96,-13.88,13.88,13.99,14.58,0.92,0.93,0.92
40.54,-12.84,-13.76,-12.84,-13.76,13.76,13.88,14.34,0.92,0.92,0.92
40.94,-12.73,-13.64,-12.73,-13.64,13.64,13.77,14.11,0.91,0.91,0.91
41.35,-12.61,-13.52,-12.62,-13.52,13.52,13.66,13.88,0.91,0.90,0.91
41.76,-12.50,-13.40,-12.50,-13.40,13.40,13.54,13.67,0.90,0.90,0.90
42.18,-12.39,-13.28,-12.39,-13.28,13.28,13.43,13.46,0.89,0.89,0.89
42.60,-12.28,-13.16,-12.28,-13.15,13.15,13.32,13.27,0.87,0.88,0.88
43.03,-12.16,-13.04,-12.16,-13.03,13.03,13.20,13.08,0.87,0.87,0.88
43.46,-12.05,-12.92,-12.05,-12.91,12.91,13.09,12.89,0.86,0.86,0.87
43.90,-11.94,-12.79,-11.94,-12.79,12.79,12.97,12.72,0.84,0.85,0.85
44.33,-11.82,-12.65,-11.83,-12.66,12.66,12.86,12.55,0.84,0.84,0.83
44.78,-11.71,-12.53,-11.71,-12.54,12.54,12.74,12.39,0.83,0.83,0.82
45.23,-11.60,-12.41,-11.60,-12.42,12.42,12.62,12.24,0.81,0.82,0.81
45.68,-11.49,-12.29,-11.49,-12.29,12.29,12.51,12.09,0.80,0.80,0.80
46.13,-11.38,-12.17,-11.38,-12.17,12.17,12.39,11.95,0.79,0.79,0.79
46.60,-11.26,-12.05,-11.26,-12.05,12.05,12.27,11.82,0.78,0.78,0.79
47.06,-11.15,-11.93,-11.15,-11.93,11.93,12.15,11.69,0.77,0.77,0.78
47.53,-11.03,-11.80,-11.04,-11.80,11.80,12.04,11.57,0.77,0.77,0.77
48.01,-10.92,-11.69,-10.93,-11.68,11.68,11.92,11.45,0.76,0.76,0.77
48.49,-10.81,-11.57,-10.81,-11.56,11.56,11.80,11.34,0.75,0.75,0.76
48.97,-10.70,-11.45,-10.70,-11.45,11.45,11.69,11.24,0.74,0.75,0.75
49.46,-10.59,-11.32,-10.59,-11.33,11.33,11.57,11.14,0.74,0.74,0.73
49.96,-10.48,-11.20,-10.47,-11.21,11.21,11.45,11.04,0.73,0.74,0.72
50.46,-10.37,-11.10,-10.36,-11.09,11.09,11.33,10.95,0.72,0.73,0.73
50.96,-10.26,-10.99,-10.25,-10.98,10.98,11.22,10.86,0.72,0.73,0.73
51.47,-10.14,-10.86,-10.14,-10.86,10.86,11.10,10.77,0.72,0.72,0.72
51.99,-10.02,-10.74,-10.03,-10.75,10.75,10.99,10.69,0.73,0.72,0.72
52.51,-9.91,-10.63,-9.92,-10.64,10.64,10.87,10.61,0.73,0.72,0.72
53.03,-9.80,-10.52,-9.81,-10.53,10.53,10.76,10.53,0.72,0.71,0.72
53.56,-9.70,-10.42,-9.71,-10.41,10.41,10.64,10.46,0.71,0.71,0.72
54.10,-9.60,-10.31,-9.61,-10.31,10.31,10.53,10.38,0.70,0.70,0.71
54.64,-9.50,-10.20,-9.50,-10.20,10.20,10.42,10.31,0.69,0.69,0.70
55.18,-9.41,-10.10,-9.40,-10.09,10.09,10.30,10.24,0.68,0.69,0.69
55.74,-9.31,-9.98,-9.31,-9.98,9.98,10.19,10.17,0.67,0.68,0.67
56.29,-9.21,-9.88,-9.21,-9.87,9.87,10.08,10.10,0.66,0.66,0.67
56.86,-9.11,-9.76,-9.11,-9.77,9.77,9.97,10.02,0.65,0.65,0.65
57.42,-9.02,-9.65,-9.02,-9.66,9.66,9.86,9.95,0.64,0.64,0.63
58.00,-8.93,-9.55,-8.93,-9.55,9.55,9.76,9.88,0.62,0.62,0.62
58.58,-8.85,-9.45,-8.85,-9.44,9.44,9.65,9.80,0.59,0.60,0.60
59.16,-8.77,-9.36,-8.76,-9.34,9.34,9.55,9.72,0.57,0.58,0.59
59.76,-8.68,-9.25,-8.68,-9.23,9.23,9.44,9.64,0.55,0.55,0.57
60.35,-8.59,-9.13,-8.60,-9.13,9.13,9.34,9.56,0.54,0.53,0.54
60.96,-8.51,-9.04,-8.52,-9.03,9.03,9.24,9.48,0.52,0.51,0.53
61.57,-8.43,-8.91,-8.45,-8.93,8.93,9.14,9.39,0.50,0.48,0.48
62.18,-8.36,-8.81,-8.37,-8.83,8.83,9.04,9.29,0.47,0.46,0.45
62.80,-8.30,-8.74,-8.30,-8.74,8.74,8.95,9.20,0.44,0.44,0.44
63.43,-8.24,-8.64,-8.24,-8.65,8.65,8.85,9.10,0.41,0.41,0.40
64.07,-8.17,-8.55,-8.17,-8.57,8.57,8.76,9.00,0.39,0.39,0.38
64.71,-8.12,-8.49,-8.11,-8.48,8.48,8.67,8.89,0.36,0.37,0.37
65.35,-8.06,-8.41,-8.05,-8.41,8.41,8.58,8.78,0.35,0.36,0.35
66.01,-8.00,-8.34,-7.99,-8.33,8.33,8.50,8.67,0.33,0.34,0.34
66.67,-7.94,-8.27,-7.94,-8.27,8.27,8.41,8.56,0.33,0.33,0.33
67.33,-7.88,-8.20,-7.88,-8.20,8.20,8.33,8.44,0.32,0.32,0.32
68.01,-7.83,-8.14,-7.83,-8.14,8.14,8.26,8.32,0.31,0.31,0.31
68.69,-7.78,-8.08,-7.78,-8.09,8.09,8.18,8.20,0.30,0.30,0.30
69.37,-7.74,-8.04,-7.74,-8.03,8.03,8.11,8.07,0.29,0.29,0.30
70.07,-7.70,-7.99,-7.70,-7.98,7.98,8.04,7.95,0.28,0.29,0.29
70.77,-7.65,-7.94,-7.66,-7.94,7.94,7.97,7.82,0.29,0.28,0.29
71.48,-7.62,-7.90,-7.63,-7.89,7.89,7.91,7.69,0.27,0.27,0.28
72.19,-7.58,-7.84,-7.59,-7.85,7.85,7.85,7.57,0.27,0.26,0.26
72.91,-7.55,-7.81,-7.57,-7.81,7.81,7.80,7.44,0.26,0.25,0.26
73.64,-7.53,-7.77,-7.54,-7.78,7.78,7.75,7.31,0.25,0.24,0.24
74.38,-7.51,-7.74,-7.52,-7.75,7.75,7.70,7.19,0.23,0.22,0.23
75.12,-7.50,-7.71,-7.51,-7.72,7.72,7.66,7.06,0.21,0.21,0.21
75.87,-7.49,-7.69,-7.49,-7.69,7.69,7.62,6.94,0.20,0.20,0.20
76.63,-7.49,-7.68,-7.48,-7.66,7.66,7.58,6.82,0.17,0.18,0.19
77.40,-7.48,-7.65,-7.47,-7.64,7.64,7.55,6.70,0.16,0.17,0.17
78.17,-7.45,-7.60,-7.46,-7.61,7.61,7.53,6.58,0.16,0.16,0.15
78.95,-7.43,-7.58,-7.44,-7.59,7.59,7.50,6.46,0.16,0.15,0.15
79.74,-7.42,-7.56,-7.43,-7.57,7.57,7.48,6.35,0.15,0.14,0.14
80.54,-7.41,-7.54,-7.42,-7.55,7.55,7.46,6.23,0.14,0.13,0.13
81.35,-7.39,-7.51,-7.40,-7.52,7.52,7.45,6.12,0.13,0.13,0.12
82.16,-7.38,-7.49,-7.37,-7.50,7.50,7.43,6.02,0.11,0.12,0.11
82.98,-7.36,-7.48,-7.35,-7.47,7.47,7.41,5.91,0.10,0.12,0.12
83.81,-7.34,-7.45,-7.32,-7.43,7.43,7.40,5.81,0.09,0.11,0.11
84.65,-7.30,-7.40,-7.28,-7.39,7.39,7.38,5.71,0.09,0.11,0.10
85.50,-7.25,-7.36,-7.24,-7.34,7.34,7.36,5.61,0.09,0.11,0.11
86.35,-7.20,-7.31,-7.19,-7.30,7.30,7.33,5.52,0.09,0.10,0.11
87.22,-7.14,-7.24,-7.14,-7.24,7.24,7.29,5.43,0.10,0.10,0.10
88.09,-7.08,-7.18,-7.09,-7.18,7.18,7.25,5.34,0.10,0.09,0.10
88.97,-7.02,-7.11,-7.03,-7.11,7.11,7.19,5.26,0.09,0.08,0.09
89.86,-6.95,-7.03,-6.96,-7.03,7.03,7.13,5.17,0.08,0.07,0.08
90.76,-6.89,-6.95,-6.89,-6.95,6.95,7.05,5.09,0.06,0.05,0.06
91.66,-6.82,-6.86,-6.82,-6.85,6.85,6.97,5.02,0.03,0.03,0.04
92.58,-6.74,-6.75,-6.74,-6.75,6.75,6.87,4.94,0.01,0.01,0.01
93.51,-6.66,-6.65,-6.66,-6.64,6.64,6.75,4.87,-0.03,-0.02,-0.01
94.44,-6.59,-6.55,-6.57,-6.52,6.52,6.63,4.80,-0.07,-0.05,-0.04
95.39,-6.51,-6.43,-6.49,-6.40,6.40,6.50,4.74,-0.11,-0.09,-0.08
96.34,-6.42,-6.30,-6.41,-6.27,6.27,6.36,4.67,-0.15,-0.14,-0.12
97.30,-6.32,-6.14,-6.32,-6.14,6.14,6.21,4.61,-0.18,-0.18,-0.18
98.28,-6.22,-5.99,-6.24,-6.00,6.00,6.06,4.55,-0.22,-0.23,-0.23
99.26,-6.13,-5.85,-6.15,-5.86,5.86,5.90,4.49,-0.27,-0.28,-0.28
100.25,-6.04,-5.70,-6.06,-5.72,5.72,5.74,4.44,-0.32,-0.34,-0.34
101.25,-5.94,-5.54,-5.98,-5.58,5.58,5.58,4.39,-0.36,-0.40,-0.40
102.27,-5.86,-5.40,-5.89,-5.44,5.44,5.42,4.33,-0.42,-0.46,-0.46
103.29,-5.81,-5.29,-5.81,-5.29,5.29,5.27,4.28,-0.52,-0.52,-0.52
104.32,-5.75,-5.18,-5.72,-5.15,5.15,5.11,4.24,-0.60,-0.58,-0.57
105.37,-5.67,-5.03,-5.64,-5.00,5.00,4.96,4.19,-0.67,-0.64,-0.64
106.42,-5.57,-4.87,-5.56,-4.86,4.86,4.81,4.14,-0.71,-0.70,-0.70
107.48,-5.48,-4.73,-5.48,-4.72,4.72,4.66,4.10,-0.76,-0.75,-0.75
108.56,-5.40,-4.59,-5.40,-4.59,4.59,4.51,4.05,-0.81,-0.81,-0.81
109.64,-5.32,-4.45,-5.32,-4.45,4.45,4.37,4.01,-0.87,-0.87,-0.87
110.74,-5.23,-4.31,-5.24,-4.32,4.32,4.24,3.97,-0.92,-0.92,-0.92
111.85,-5.15,-4.19,-5.16,-4.18,4.18,4.11,3.92,-0.97,-0.97,-0.96
112.97,-5.07,-4.04,-5.08,-4.05,4.05,3.98,3.88,-1.02,-1.03,-1.03
114.10,-4.98,-3.91,-5.00,-3.92,3.92,3.86,3.84,-1.06,-1.07,-1.07
115.24,-4.90,-3.78,-4.91,-3.79,3.79,3.73,3.79,-1.11,-1.12,-1.12
116.39,-4.85,-3.68,-4.83,-3.67,3.67,3.62,3.75,-1.18,-1.16,-1.17
117.55,-4.78,-3.57,-4.76,-3.55,3.55,3.50,3.70,-1.23,-1.20,-1.21
118.73,-4.68,-3.43,-4.68,-3.44,3.44,3.39,3.66,-1.24,-1.24,-1.25
119.92,-4.60,-3.32,-4.61,-3.33,3.33,3.29,3.61,-1.27,-1.28,-1.28
121.12,-4.52,-3.21,-4.54,-3.23,3.23,3.18,3.56,-1.30,-1.31,-1.31
122.33,-4.47,-3.13,-4.46,-3.12,3.12,3.08,3.51,-1.35,-1.34,-1.34
123.55,-4.40,-3.03,-4.39,-3.02,3.02,2.98,3.46,-1.38,-1.37,-1.37
124.79,-4.30,-2.90,-4.32,-2.92,2.92,2.89,3.41,-1.38,-1.40,-1.40
126.03,-4.24,-2.82,-4.26,-2.82,2.82,2.79,3.36,-1.42,-1.43,-1.42
127.29,-4.20,-2.75,-4.19,-2.73,2.73,2.70,3.30,-1.47,-1.46,-1.45
128.57,-4.15,-2.66,-4.13,-2.64,2.64,2.61,3.24,-1.51,-1.49,-1.49
129.85,-4.07,-2.56,-4.06,-2.55,2.55,2.52,3.19,-1.52,-1.52,-1.51
131.15,-4.00,-2.46,-4.01,-2.46,2.46,2.44,3.13,-1.54,-1.54,-1.54
132.46,-3.96,-2.38,-3.95,-2.38,2.38,2.35,3.06,-1.58,-1.57,-1.58
133.79,-3.89,-2.29,-3.90,-2.30,2.30,2.27,3.00,-1.60,-1.61,-1.60
135.12,-3.82,-2.19,-3.85,-2.21,2.21,2.19,2.94,-1.61,-1.64,-1.63
136.48,-3.78,-2.12,-3.80,-2.13,2.13,2.11,2.87,-1.65,-1.67,-1.66
137.84,-3.74,-2.05,-3.75,-2.05,2.05,2.03,2.81,-1.69,-1.70,-1.69
139.22,-3.72,-1.98,-3.71,-1.98,1.98,1.95,2.74,-1.74,-1.73,-1.74
140.61,-3.68,-1.91,-3.67,-1.90,1.90,1.88,2.67,-1.78,-1.77,-1.77
142.02,-3.63,-1.84,-3.63,-1.83,1.83,1.80,2.60,-1.80,-1.80,-1.79
143.44,-3.60,-1.77,-3.60,-1.76,1.76,1.73,2.53,-1.84,-1.83,-1.83
144.87,-3.56,-1.69,-3.56,-1.69,1.69,1.65,2.46,-1.87,-1.87,-1.87
146.32,-3.53,-1.62,-3.53,-1.62,1.62,1.58,2.39,-1.91,-1.91,-1.91
147.78,-3.48,-1.54,-3.50,-1.55,1.55,1.51,2.32,-1.93,-1.94,-1.94
149.26,-3.45,-1.48,-3.46,-1.48,1.48,1.43,2.25,-1.97,-1.98,-1.97
150.75,-3.42,-1.40,-3.42,-1.40,1.40,1.36,2.18,-2.02,-2.02,-2.02
152.26,-3.40,-1.34,-3.38,-1.32,1.32,1.29,2.11,-2.08,-2.06,-2.06
153.78,-3.37,-1.28,-3.34,-1.24,1.24,1.22,2.04,-2.13,-2.10,-2.09
155.32,-3.33,-1.19,-3.30,-1.16,1.16,1.15,1.97,-2.17,-2.14,-2.14
156.88,-3.28,-1.11,-3.26,-1.08,1.08,1.08,1.90,-2.21,-2.19,-2.17
158.44,-3.23,-1.00,-3.22,-0.99,0.99,1.01,1.83,-2.24,-2.23,-2.23
160.03,-3.17,-0.90,-3.18,-0.91,0.91,0.94,1.76,-2.26,-2.27,-2.27
161.63,-3.13,-0.81,-3.14,-0.83,0.83,0.87,1.69,-2.30,-2.31,-2.32
163.24,-3.09,-0.73,-3.10,-0.75,0.75,0.80,1.62,-2.34,-2.36,-2.36
164.88,-3.04,-0.64,-3.07,-0.67,0.67,0.73,1.55,-2.37,-2.40,-2.40
166.53,-3.02,-0.58,-3.04,-0.60,0.60,0.66,1.48,-2.43,-2.44,-2.44
168.19,-3.00,-0.52,-3.01,-0.53,0.53,0.60,1.42,-2.48,-2.48,-2.48
169.87,-2.96,-0.44,-2.98,-0.46,0.46,0.53,1.35,-2.50,-2.52,-2.52
171.57,-2.94,-0.39,-2.96,-0.40,0.40,0.47,1.28,-2.54,-2.56,-2.55
173.29,-2.93,-0.34,-2.94,-0.34,0.34,0.40,1.22,-2.59,-2.59,-2.59
175.02,-2.92,-0.29,-2.92,-0.29,0.29,0.34,1.15,-2.63,-2.63,-2.63
176.77,-2.91,-0.25,-2.91,-0.25,0.25,0.28,1.09,-2.66,-2.66,-2.66
178.54,-2.89,-0.20,-2.89,-0.20,0.20,0.23,1.02,-2.69,-2.69,-2.69
180.32,-2.88,-0.16,-2.87,-0.16,0.16,0.17,0.96,-2.72,-2.71,-2.72
182.13,-2.87,-0.13,-2.85,-0.11,0.11,0.12,0.89,-2.76,-2.74,-2.74
183.95,-2.85,-0.09,-2.82,-0.06,0.06,0.07,0.83,-2.79,-2.76,-2.76
185.79,-2.82,-0.04,-2.80,-0.02,0.02,0.03,0.77,-2.81,-2.78,-2.78
187.65,-2.80,0.00,-2.77,0.03,-0.03,-0.01,0.71,-2.83,-2.80,-2.80
189.52,-2.76,0.05,-2.74,0.08,-0.08,-0.05,0.64,-2.84,-2.82,-2.81
191.42,-2.73,0.10,-2.71,0.12,-0.12,-0.08,0.58,-2.85,-2.83,-2.83
193.33,-2.69,0.15,-2.68,0.16,-0.16,-0.11,0.52,-2.85,-2.85,-2.84
195.27,-2.64,0.21,-2.66,0.20,-0.20,-0.13,0.46,-2.84,-2.86,-2.85
197.22,-2.61,0.26,-2.64,0.23,-0.23,-0.15,0.40,-2.85,-2.87,-2.87
199.19,-2.59,0.30,-2.62,0.26,-0.26,-0.17,0.34,-2.85,-2.88,-2.89
201.18,-2.57,0.33,-2.61,0.28,-0.28,-0.18,0.29,-2.86,-2.90,-2.90
203.19,-2.58,0.32,-2.61,0.30,-0.30,-0.19,0.23,-2.88,-2.91,-2.90
205.23,-2.59,0.33,-2.61,0.31,-0.31,-0.19,0.17,-2.90,-2.92,-2.92
207.28,-2.61,0.31,-2.63,0.31,-0.31,-0.20,0.12,-2.92,-2.93,-2.92
209.35,-2.65,0.29,-2.65,0.30,-0.30,-0.20,0.06,-2.95,-2.94,-2.94
211.44,-2.68,0.28,-2.68,0.28,-0.28,-0.19,0.01,-2.96,-2.96,-2.96
213.56,-2.71,0.26,-2.71,0.26,-0.26,-0.19,-0.04,-2.97,-2.97,-2.97
215.69,-2.75,0.22,-2.75,0.23,-0.23,-0.18,-0.10,-2.98,-2.98,-2.97
217.85,-2.80,0.19,-2.79,0.20,-0.20,-0.18,-0.15,-3.00,-2.99,-2.99
220.03,-2.83,0.17,-2.84,0.16,-0.16,-0.17,-0.19,-3.00,-3.00,-3.00
222.23,-2.87,0.15,-2.88,0.13,-0.13,-0.16,-0.24,-3.01,-3.02,-3.02
224.45,-2.93,0.09,-2.93,0.10,-0.10,-0.15,-0.28,-3.03,-3.03,-3.02
226.70,-2.98,0.06,-2.97,0.08,-0.08,-0.14,-0.33,-3.06,-3.04,-3.04
228.96,-3.03,0.02,-3.01,0.05,-0.05,-0.14,-0.37,-3.08,-3.06,-3.05
231.25,-3.06,0.00,-3.05,0.03,-0.03,-0.13,-0.41,-3.09,-3.07,-3.06
233.57,-3.09,-0.01,-3.08,0.00,-0.00,-0.12,-0.44,-3.09,-3.09,-3.08
235.90,-3.12,-0.03,-3.12,-0.02,0.02,-0.11,-0.48,-3.10,-3.10,-3.09
238.26,-3.14,-0.03,-3.15,-0.04,0.04,-0.10,-0.51,-3.11,-3.11,-3.11
240.64,-3.17,-0.04,-3.18,-0.05,0.05,-0.10,-0.53,-3.12,-3.13,-3.13
243.05,-3.19,-0.05,-3.20,-0.06,0.06,-0.09,-0.56,-3.13,-3.14,-3.14
245.48,-3.21,-0.06,-3.22,-0.08,0.08,-0.09,-0.58,-3.14,-3.15,-3.15
247.93,-3.24,-0.08,-3.24,-0.08,0.08,-0.08,-0.60,-3.16,-3.15,-3.16
250.41,-3.25,-0.08,-3.25,-0.09,0.09,-0.08,-0.62,-3.16,-3.16,-3.17
252.92,-3.26,-0.10,-3.26,-0.10,0.10,-0.07,-0.64,-3.16,-3.16,-3.16
255.45,-3.27,-0.11,-3.26,-0.10,0.10,-0.07,-0.65,-3.17,-3.16,-3.16
258.00,-3.26,-0.11,-3.26,-0.11,0.11,-0.07,-0.66,-3.16,-3.15,-3.15
260.58,-3.25,-0.10,-3.25,-0.11,0.11,-0.06,-0.66,-3.14,-3.15,-3.15
263.19,-3.24,-0.10,-3.24,-0.11,0.11,-0.06,-0.67,-3.14,-3.14,-3.14
265.82,-3.22,-0.09,-3.23,-0.10,0.10,-0.06,-0.67,-3.12,-3.13,-3.13
268.48,-3.21,-0.10,-3.20,-0.09,0.09,-0.06,-0.67,-3.12,-3.11,-3.11
271.16,-3.19,-0.10,-3.17,-0.07,0.07,-0.06,-0.66,-3.12,-3.10,-3.09
273.87,-3.14,-0.06,-3.13,-0.05,0.05,-0.06,-0.66,-3.09,-3.08,-3.08
276.61,-3.10,-0.05,-3.09,-0.02,0.02,-0.06,-0.65,-3.08,-3.07,-3.05
279.38,-3.05,0.00,-3.05,0.01,-0.01,-0.06,-0.64,-3.06,-3.05,-3.05
282.17,-3.00,0.03,-3.00,0.04,-0.04,-0.06,-0.63,-3.04,-3.04,-3.03
284.99,-2.96,0.06,-2.94,0.08,-0.08,-0.06,-0.62,-3.04,-3.02,-3.02
287.84,-2.88,0.12,-2.89,0.12,-0.12,-0.06,-0.60,-3.00,-3.00,-3.00
290.72,-2.82,0.16,-2.83,0.16,-0.16,-0.06,-0.59,-2.98,-2.98,-2.98
293.63,-2.75,0.22,-2.77,0.20,-0.20,-0.06,-0.57,-2.95,-2.97,-2.97
296.57,-2.68,0.26,-2.70,0.24,-0.24,-0.06,-0.55,-2.92,-2.95,-2.94
299.53,-2.62,0.31,-2.64,0.29,-0.29,-0.06,-0.54,-2.91,-2.93,-2.93
302.53,-2.57,0.35,-2.57,0.33,-0.33,-0.07,-0.52,-2.91,-2.91,-2.92
305.55,-2.51,0.38,-2.51,0.38,-0.38,-0.07,-0.50,-2.89,-2.89,-2.89
308.61,-2.46,0.41,-2.44,0.42,-0.42,-0.07,-0.48,-2.89,-2.87,-2.87
311.69,-2.39,0.45,-2.38,0.47,-0.47,-0.07,-0.46,-2.86,-2.84,-2.84
314.81,-2.34,0.46,-2.31,0.51,-0.51,-0.08,-0.44,-2.85,-2.82,-2.80
317.96,-2.27,0.52,-2.25,0.55,-0.55,-0.08,-0.42,-2.82,-2.80,-2.79
321.14,-2.21,0.56,-2.20,0.58,-0.58,-0.08,-0.40,-2.79,-2.78,-2.77
324.35,-2.15,0.60,-2.15,0.61,-0.61,-0.09,-0.38,-2.76,-2.75,-2.75
327.59,-2.09,0.64,-2.10,0.63,-0.63,-0.09,-0.35,-2.72,-2.73,-2.73
330.87,-2.04,0.67,-2.07,0.64,-0.64,-0.09,-0.33,-2.68,-2.71,-2.71
334.18,-2.00,0.68,-2.04,0.65,-0.65,-0.10,-0.31,-2.65,-2.68,-2.68
337.52,-1.97,0.69,-2.01,0.64,-0.64,-0.10,-0.29,-2.61,-2.66,-2.66
340.90,-1.97,0.67,-2.00,0.63,-0.63,-0.10,-0.27,-2.60,-2.64,-2.64
344.30,-1.98,0.63,-2.00,0.61,-0.61,-0.11,-0.25,-2.59,-2.61,-2.61
347.75,-1.99,0.60,-2.01,0.58,-0.58,-0.11,-0.23,-2.57,-2.59,-2.59
351.23,-2.01,0.55,-2.02,0.54,-0.54,-0.12,-0.21,-2.55,-2.56,-2.56
354.74,-2.03,0.50,-2.05,0.49,-0.49,-0.12,-0.19,-2.52,-2.54,-2.53
358.28,-2.07,0.45,-2.07,0.44,-0.44,-0.12,-0.17,-2.51,-2.52,-2.52
361.87,-2.11,0.38,-2.10,0.39,-0.39,-0.13,-0.15,-2.50,-2.49,-2.49
365.49,-2.15,0.31,-2.14,0.33,-0.33,-0.13,-0.13,-2.48,-2.47,-2.46
369.14,-2.19,0.26,-2.16,0.28,-0.28,-0.14,-0.11,-2.47,-2.44,-2.45
372.83,-2.21,0.21,-2.19,0.23,-0.23,-0.14,-0.10,-2.44,-2.42,-2.42
376.56,-2.25,0.15,-2.21,0.19,-0.19,-0.15,-0.08,-2.44,-2.40,-2.40
380.33,-2.26,0.11,-2.23,0.15,-0.15,-0.15,-0.06,-2.41,-2.38,-2.37
384.13,-2.27,0.09,-2.25,0.11,-0.11,-0.16,-0.04,-2.38,-2.36,-2.36
387.97,-2.28,0.06,-2.26,0.08,-0.08,-0.16,-0.03,-2.36,-2.34,-2.34
391.85,-2.27,0.06,-2.27,0.06,-0.06,-0.17,-0.01,-2.33,-2.33,-2.33
395.77,-2.26,0.04,-2.28,0.04,-0.04,-0.17,0.01,-2.30,-2.31,-2.30
399.73,-2.26,0.03,-2.28,0.02,-0.02,-0.18,0.02,-2.28,-2.30,-2.29
403.72,-2.25,0.04,-2.28,0.01,-0.01,-0.18,0.04,-2.26,-2.29,-2.29
407.76,-2.25,0.03,-2.28,0.01,-0.01,-0.19,0.05,-2.26,-2.29,-2.28
411.84,-2.26,0.01,-2.28,0.00,-0.00,-0.19,0.07,-2.26,-2.28,-2.27
415.96,-2.27,0.01,-2.28,0.01,-0.01,-0.20,0.08,-2.28,-2.28,-2.28
420.12,-2.28,0.00,-2.27,0.01,-0.01,-0.21,0.09,-2.29,-2.28,-2.28
