frequency,raw,error,smoothed,error_smoothed,equalization,parametric_eq,fixed_band_eq,equalized_raw,equalized_smoothed,target
20.00,-0.40,-2.27,-0.40,-2.27,2.27,-0.03,0.16,1.87,1.87,1.87
20.20,-0.32,-2.23,-0.32,-2.23,2.23,-0.03,0.16,1.91,1.91,1.91
20.40,-0.24,-2.18,-0.24,-2.18,2.18,-0.03,0.17,1.95,1.95,1.94
20.61,-0.16,-2.13,-0.16,-2.14,2.14,-0.03,0.18,1.98,1.98,1.97
20.81,-0.08,-2.09,-0.08,-2.09,2.09,-0.03,0.19,2.02,2.01,2.01
21.02,0.00,-2.05,-0.01,-2.05,2.05,-0.03,0.20,2.05,2.04,2.05
21.23,0.06,-2.00,0.07,-2.00,2.00,-0.04,0.21,2.06,2.07,2.06
21.44,0.13,-1.95,0.13,-1.95,1.95,-0.04,0.22,2.08,2.08,2.08
21.66,0.20,-1.90,0.20,-1.90,1.90,-0.04,0.23,2.10,2.10,2.10
21.87,0.26,-1.85,0.26,-1.85,1.85,-0.04,0.24,2.12,2.12,2.11
22.09,0.32,-1.80,0.32,-1.80,1.80,-0.04,0.25,2.13,2.13,2.12
22.31,0.38,-1.74,0.38,-1.75,1.75,-0.04,0.26,2.13,2.13,2.12
22.54,0.44,-1.69,0.44,-1.69,1.69,-0.04,0.27,2.13,2.13,2.13
22.76,0.50,-1.64,0.50,-1.64,1.63,-0.04,0.28,2.13,2.12,2.14
22.99,0.56,-1.58,0.57,-1.58,1.56,-0.04,0.29,2.12,2.13,2.14
23.22,0.65,-1.50,0.65,-1.50,1.49,-0.04,0.30,2.14,2.14,2.15
23.45,0.74,-1.42,0.74,-1.42,1.42,-0.04,0.31,2.16,2.16,2.16
23.69,0.84,-1.33,0.84,-1.33,1.35,-0.05,0.33,2.19,2.19,2.17
23.92,0.93,-1.25,0.92,-1.26,1.28,-0.05,0.34,2.22,2.21,2.18
24.16,0.99,-1.20,0.99,-1.20,1.22,-0.05,0.35,2.21,2.21,2.19
24.40,1.04,-1.16,1.04,-1.15,1.16,-0.05,0.36,2.20,2.20,2.20
24.65,1.09,-1.10,1.09,-1.10,1.09,-0.05,0.38,2.18,2.18,2.19
24.89,1.14,-1.05,1.14,-1.05,1.03,-0.05,0.39,2.17,2.18,2.19
25.14,1.20,-0.99,1.20,-0.99,0.98,-0.05,0.40,2.18,2.18,2.19
25.39,1.26,-0.93,1.27,-0.93,0.92,-0.05,0.42,2.18,2.18,2.19
25.65,1.33,-0.86,1.33,-0.85,0.86,-0.06,0.43,2.19,2.20,2.19
25.91,1.40,-0.77,1.39,-0.79,0.81,-0.06,0.44,2.21,2.20,2.17
26.16,1.45,-0.73,1.45,-0.73,0.75,-0.06,0.46,2.20,2.20,2.18
26.43,1.49,-0.69,1.49,-0.69,0.69,-0.06,0.47,2.18,2.18,2.18
26.69,1.54,-0.64,1.54,-0.65,0.62,-0.06,0.48,2.17,2.16,2.18
26.96,1.58,-0.60,1.59,-0.59,0.56,-0.06,0.49,2.14,2.15,2.18
27.23,1.65,-0.53,1.65,-0.53,0.51,-0.06,0.51,2.16,2.16,2.18
27.50,1.73,-0.45,1.73,-0.45,0.46,-0.07,0.52,2.19,2.18,2.18
27.77,1.80,-0.37,1.80,-0.37,0.41,-0.07,0.53,2.21,2.21,2.17
28.05,1.86,-0.31,1.85,-0.32,0.36,-0.07,0.54,2.22,2.21,2.17
28.33,1.87,-0.28,1.87,-0.29,0.31,-0.07,0.55,2.19,2.18,2.15
28.62,1.87,-0.29,1.87,-0.28,0.27,-0.07,0.55,2.14,2.14,2.16
28.90,1.88,-0.28,1.89,-0.27,0.23,-0.07,0.56,2.11,2.12,2.16
29.19,1.92,-0.23,1.93,-0.23,0.19,-0.08,0.57,2.11,2.12,2.15
29.48,1.99,-0.17,1.99,-0.17,0.16,-0.08,0.57,2.15,2.15,2.16
29.78,2.05,-0.11,2.05,-0.11,0.13,-0.08,0.57,2.18,2.18,2.16
30.08,2.10,-0.06,2.09,-0.07,0.10,-0.08,0.58,2.20,2.19,2.16
30.38,2.10,-0.04,2.10,-0.04,0.08,-0.08,0.58,2.18,2.18,2.14
30.68,2.10,-0.04,2.11,-0.03,0.06,-0.09,0.58,2.16,2.16,2.14
30.99,2.10,-0.03,2.10,-0.03,0.04,-0.09,0.57,2.14,2.14,2.13
31.30,2.10,-0.03,2.09,-0.04,0.02,-0.09,0.57,2.12,2.12,2.13
31.61,2.10,-0.03,2.10,-0.03,-0.00,-0.09,0.56,2.10,2.09,2.13
31.93,2.10,-0.01,2.12,0.00,-0.03,-0.09,0.56,2.07,2.08,2.11
32.24,2.16,0.06,2.16,0.06,-0.08,-0.10,0.55,2.09,2.09,2.10
32.57,2.23,0.13,2.23,0.13,-0.13,-0.10,0.54,2.10,2.10,2.10
32.89,2.31,0.21,2.31,0.21,-0.20,-0.10,0.52,2.11,2.11,2.10
33.22,2.38,0.28,2.38,0.28,-0.28,-0.11,0.51,2.10,2.10,2.10
33.55,2.46,0.37,2.46,0.36,-0.37,-0.11,0.49,2.10,2.09,2.09
33.89,2.53,0.44,2.53,0.44,-0.44,-0.11,0.48,2.09,2.09,2.09
34.23,2.61,0.52,2.62,0.53,-0.52,-0.11,0.46,2.09,2.10,2.09
34.57,2.69,0.61,2.69,0.61,-0.58,-0.12,0.44,2.11,2.11,2.08
34.92,2.77,0.70,2.75,0.68,-0.64,-0.12,0.42,2.13,2.11,2.07
35.27,2.79,0.72,2.78,0.71,-0.70,-0.12,0.40,2.09,2.08,2.07
35.62,2.79,0.73,2.79,0.73,-0.76,-0.13,0.38,2.03,2.04,2.06
35.97,2.79,0.74,2.82,0.76,-0.81,-0.13,0.35,1.98,2.01,2.05
36.33,2.87,0.82,2.87,0.82,-0.85,-0.13,0.33,2.02,2.02,2.05
36.70,2.95,0.90,2.94,0.90,-0.89,-0.14,0.30,2.06,2.05,2.05
37.06,3.02,0.99,3.00,0.96,-0.93,-0.14,0.28,2.09,2.07,2.03
37.43,3.02,0.99,3.02,1.00,-0.96,-0.15,0.25,2.06,2.06,2.03
37.81,3.02,1.00,3.03,1.01,-1.00,-0.15,0.22,2.02,2.03,2.02
38.19,3.02,1.01,3.02,1.00,-1.03,-0.15,0.19,2.00,2.00,2.01
38.57,3.02,1.01,3.02,1.01,-1.04,-0.16,0.17,1.98,1.98,2.01
38.95,3.02,1.02,3.02,1.02,-1.03,-0.16,0.14,1.99,1.99,2.00
39.34,3.02,1.03,3.03,1.04,-1.01,-0.17,0.11,2.01,2.01,1.99
39.74,3.02,1.05,3.02,1.04,-0.99,-0.17,0.08,2.03,2.02,1.97
40.14,2.99,1.01,2.97,0.99,-0.97,-0.18,0.05,2.02,1.99,1.98
40.54,2.90,0.93,2.90,0.92,-0.95,-0.18,0.02,1.95,1.95,1.97
40.94,2.80,0.83,2.84,0.87,-0.91,-0.19,-0.01,1.89,1.92,1.97
41.35,2.79,0.84,2.80,0.84,-0.87,-0.19,-0.04,1.92,1.93,1.95
41.76,2.79,0.86,2.77,0.84,-0.82,-0.20,-0.07,1.97,1.96,1.93
42.18,2.75,0.83,2.73,0.82,-0.76,-0.21,-0.11,1.99,1.97,1.92
42.60,2.65,0.76,2.66,0.76,-0.71,-0.21,-0.14,1.94,1.94,1.89
43.03,2.55,0.67,2.55,0.67,-0.68,-0.22,-0.17,1.87,1.87,1.88
43.46,2.45,0.60,2.45,0.60,-0.65,-0.23,-0.20,1.80,1.79,1.85
43.90,2.35,0.55,2.37,0.56,-0.63,-0.23,-0.23,1.72,1.74,1.80
44.33,2.33,0.56,2.34,0.56,-0.62,-0.24,-0.27,1.71,1.71,1.77
44.78,2.33,0.59,2.32,0.58,-0.62,-0.25,-0.30,1.71,1.70,1.74
45.23,2.32,0.61,2.32,0.61,-0.61,-0.26,-0.33,1.71,1.71,1.71
45.68,2.29,0.61,2.29,0.61,-0.59,-0.27,-0.36,1.70,1.71,1.68
46.13,2.25,0.59,2.26,0.59,-0.54,-0.28,-0.40,1.71,1.72,1.66
46.60,2.17,0.52,2.17,0.53,-0.46,-0.29,-0.43,1.72,1.72,1.65
47.06,2.07,0.44,2.05,0.41,-0.33,-0.30,-0.46,1.74,1.72,1.63
47.53,1.82,0.19,1.84,0.21,-0.16,-0.31,-0.50,1.66,1.68,1.63
48.01,1.57,-0.06,1.54,-0.08,0.04,-0.32,-0.53,1.61,1.58,1.63
48.49,1.15,-0.46,1.16,-0.46,0.28,-0.33,-0.57,1.43,1.43,1.61
48.97,0.72,-0.88,0.71,-0.89,0.53,-0.34,-0.60,1.25,1.24,1.60
49.46,0.26,-1.33,0.25,-1.35,0.80,-0.35,-0.64,1.06,1.05,1.59
49.96,-0.21,-1.80,-0.14,-1.74,1.11,-0.37,-0.67,0.90,0.97,1.59
50.46,-0.45,-2.05,-0.45,-2.05,1.41,-0.38,-0.70,0.97,0.96,1.60
50.96,-0.66,-2.27,-0.70,-2.31,1.69,-0.40,-0.74,1.04,0.99,1.61
51.47,-0.87,-2.47,-0.88,-2.48,1.93,-0.41,-0.77,1.07,1.05,1.60
51.99,-1.08,-2.66,-1.04,-2.63,2.12,-0.43,-0.81,1.05,1.08,1.58
52.51,-1.09,-2.66,-1.10,-2.67,2.25,-0.45,-0.84,1.16,1.15,1.57
53.03,-1.08,-2.62,-1.03,-2.58,2.30,-0.47,-0.88,1.22,1.26,1.54
53.56,-0.86,-2.37,-0.87,-2.39,2.26,-0.49,-0.91,1.40,1.39,1.51
54.10,-0.65,-2.12,-0.69,-2.16,2.15,-0.51,-0.94,1.50,1.45,1.47
54.64,-0.50,-1.92,-0.49,-1.92,1.96,-0.53,-0.98,1.46,1.47,1.42
55.18,-0.32,-1.69,-0.29,-1.67,1.71,-0.56,-1.01,1.39,1.42,1.37
55.74,-0.07,-1.39,-0.06,-1.39,1.43,-0.58,-1.04,1.36,1.36,1.32
56.29,0.19,-1.08,0.19,-1.08,1.13,-0.61,-1.07,1.32,1.32,1.27
56.86,0.44,-0.77,0.42,-0.79,0.85,-0.64,-1.10,1.29,1.27,1.21
57.42,0.61,-0.53,0.60,-0.54,0.60,-0.67,-1.13,1.21,1.21,1.14
58.00,0.74,-0.34,0.75,-0.33,0.37,-0.71,-1.16,1.11,1.12,1.08
58.58,0.87,-0.15,0.87,-0.15,0.15,-0.75,-1.19,1.02,1.03,1.02
59.16,1.00,0.03,1.00,0.03,-0.05,-0.79,-1.21,0.95,0.95,0.97
59.76,1.13,0.22,1.13,0.22,-0.24,-0.83,-1.24,0.89,0.89,0.91
60.35,1.27,0.43,1.27,0.42,-0.43,-0.88,-1.26,0.84,0.84,0.84
60.96,1.41,0.62,1.41,0.62,-0.62,-0.93,-1.29,0.79,0.79,0.79
61.57,1.55,0.83,1.55,0.83,-0.83,-0.98,-1.31,0.72,0.71,0.72
62.18,1.69,1.04,1.69,1.03,-1.06,-1.04,-1.33,0.63,0.63,0.65
62.80,1.84,1.23,1.84,1.24,-1.29,-1.11,-1.35,0.55,0.55,0.61
63.43,2.02,1.47,2.03,1.48,-1.52,-1.18,-1.37,0.50,0.52,0.55
64.07,2.23,1.72,2.25,1.74,-1.74,-1.25,-1.39,0.49,0.51,0.51
64.71,2.49,2.03,2.48,2.02,-1.95,-1.34,-1.40,0.54,0.52,0.46
65.35,2.67,2.26,2.65,2.23,-2.15,-1.43,-1.42,0.52,0.49,0.41
66.01,2.79,2.41,2.75,2.37,-2.34,-1.53,-1.43,0.45,0.41,0.38
66.67,2.79,2.45,2.84,2.50,-2.52,-1.63,-1.45,0.27,0.32,0.34
67.33,2.90,2.59,2.95,2.63,-2.67,-1.75,-1.46,0.23,0.28,0.31
68.01,3.11,2.83,3.07,2.79,-2.81,-1.88,-1.47,0.30,0.26,0.28
68.69,3.20,2.95,3.17,2.92,-2.93,-2.02,-1.49,0.28,0.24,0.25
69.37,3.24,3.03,3.25,3.04,-3.03,-2.17,-1.50,0.21,0.22,0.21
70.07,3.26,3.08,3.32,3.13,-3.13,-2.33,-1.51,0.13,0.19,0.18
70.77,3.42,3.25,3.39,3.22,-3.22,-2.51,-1.52,0.20,0.17,0.17
71.48,3.47,3.34,3.45,3.31,-3.29,-2.69,-1.53,0.18,0.16,0.13
72.19,3.47,3.36,3.48,3.38,-3.35,-2.88,-1.54,0.12,0.13,0.11
72.91,3.47,3.40,3.48,3.40,-3.40,-3.08,-1.55,0.07,0.08,0.07
73.64,3.47,3.43,3.47,3.43,-3.44,-3.27,-1.57,0.03,0.03,0.04
74.38,3.47,3.46,3.47,3.46,-3.48,-3.46,-1.58,-0.00,-0.00,0.01
75.12,3.47,3.49,3.47,3.49,-3.51,-3.63,-1.59,-0.04,-0.04,-0.02
75.87,3.47,3.52,3.47,3.52,-3.54,-3.78,-1.61,-0.07,-0.07,-0.05
76.63,3.47,3.55,3.47,3.55,-3.57,-3.90,-1.62,-0.10,-0.10,-0.08
77.40,3.47,3.58,3.47,3.58,-3.60,-3.98,-1.64,-0.13,-0.13,-0.11
78.17,3.47,3.61,3.48,3.61,-3.62,-4.02,-1.65,-0.15,-0.14,-0.14
78.95,3.47,3.62,3.48,3.63,-3.62,-4.02,-1.67,-0.15,-0.14,-0.15
79.74,3.47,3.64,3.45,3.62,-3.59,-3.96,-1.69,-0.12,-0.14,-0.17
80.54,3.39,3.58,3.41,3.59,-3.52,-3.88,-1.71,-0.13,-0.12,-0.19
81.35,3.30,3.51,3.29,3.49,-3.43,-3.75,-1.73,-0.13,-0.14,-0.21
82.16,3.18,3.39,3.14,3.35,-3.30,-3.61,-1.75,-0.12,-0.16,-0.21
82.98,2.92,3.13,2.98,3.19,-3.16,-3.45,-1.78,-0.24,-0.19,-0.21
83.81,2.81,3.03,2.78,3.00,-3.01,-3.29,-1.80,-0.20,-0.23,-0.22
84.65,2.61,2.84,2.59,2.81,-2.87,-3.12,-1.83,-0.26,-0.28,-0.23
85.50,2.42,2.64,2.45,2.68,-2.75,-2.96,-1.86,-0.33,-0.30,-0.22
86.35,2.33,2.55,2.35,2.57,-2.65,-2.81,-1.89,-0.32,-0.30,-0.22
87.22,2.33,2.55,2.32,2.53,-2.58,-2.67,-1.92,-0.25,-0.27,-0.22
88.09,2.33,2.55,2.32,2.53,-2.54,-2.54,-1.96,-0.21,-0.22,-0.22
88.97,2.33,2.53,2.33,2.54,-2.51,-2.42,-1.99,-0.18,-0.18,-0.20
89.86,2.33,2.53,2.34,2.54,-2.50,-2.31,-2.03,-0.17,-0.16,-0.20
90.76,2.33,2.55,2.34,2.54,-2.48,-2.21,-2.07,-0.15,-0.15,-0.22
91.66,2.33,2.54,2.30,2.52,-2.47,-2.13,-2.11,-0.14,-0.16,-0.21
92.58,2.25,2.49,2.24,2.47,-2.45,-2.06,-2.15,-0.20,-0.21,-0.24
93.51,2.15,2.38,2.17,2.40,-2.43,-1.99,-2.19,-0.28,-0.26,-0.23
94.44,2.10,2.35,2.11,2.36,-2.41,-1.94,-2.23,-0.31,-0.30,-0.25
95.39,2.10,2.36,2.09,2.36,-2.40,-1.89,-2.28,-0.30,-0.31,-0.26
96.34,2.10,2.40,2.10,2.39,-2.40,-1.86,-2.33,-0.30,-0.30,-0.30
97.30,2.10,2.42,2.10,2.42,-2.41,-1.83,-2.37,-0.31,-0.31,-0.32
98.28,2.10,2.44,2.10,2.44,-2.44,-1.80,-2.42,-0.34,-0.34,-0.34
99.26,2.10,2.47,2.10,2.47,-2.47,-1.79,-2.47,-0.37,-0.37,-0.37
100.25,2.10,2.50,2.10,2.50,-2.50,-1.78,-2.52,-0.40,-0.40,-0.40
101.25,2.10,2.53,2.11,2.54,-2.53,-1.77,-2.57,-0.42,-0.42,-0.43
102.27,2.10,2.57,2.11,2.58,-2.55,-1.77,-2.62,-0.45,-0.44,-0.47
103.29,2.10,2.62,2.08,2.60,-2.57,-1.78,-2.67,-0.47,-0.49,-0.52
104.32,2.05,2.61,2.03,2.58,-2.59,-1.79,-2.72,-0.54,-0.57,-0.56
105.37,1.93,2.54,1.96,2.56,-2.61,-1.80,-2.77,-0.68,-0.65,-0.61
106.42,1.88,2.54,1.91,2.58,-2.62,-1.82,-2.82,-0.74,-0.71,-0.66
107.48,1.88,2.61,1.87,2.60,-2.62,-1.84,-2.87,-0.74,-0.75,-0.73
108.56,1.88,2.69,1.84,2.64,-2.61,-1.87,-2.92,-0.73,-0.77,-0.81
109.64,1.73,2.61,1.75,2.62,-2.59,-1.90,-2.96,-0.86,-0.84,-0.88
110.74,1.64,2.58,1.64,2.58,-2.55,-1.93,-3.00,-0.91,-0.92,-0.94
111.85,1.45,2.46,1.50,2.51,-2.51,-1.96,-3.04,-1.05,-1.01,-1.01
112.97,1.40,2.50,1.34,2.42,-2.43,-2.00,-3.08,-1.03,-1.09,-1.10
114.10,1.15,2.31,1.16,2.32,-2.32,-2.04,-3.11,-1.17,-1.16,-1.16
115.24,0.93,2.17,0.98,2.22,-2.17,-2.08,-3.14,-1.24,-1.19,-1.24
116.39,0.79,2.11,0.77,2.08,-2.01,-2.12,-3.16,-1.22,-1.24,-1.32
117.55,0.59,1.97,0.56,1.94,-1.86,-2.16,-3.18,-1.27,-1.30,-1.38
118.73,0.32,1.77,0.31,1.75,-1.73,-2.20,-3.20,-1.40,-1.41,-1.45
119.92,0.06,1.55,0.06,1.55,-1.63,-2.24,-3.20,-1.57,-1.57,-1.49
121.12,-0.17,1.38,-0.12,1.43,-1.58,-2.28,-3.21,-1.75,-1.69,-1.55
122.33,-0.18,1.41,-0.17,1.41,-1.58,-2.32,-3.21,-1.75,-1.74,-1.59
123.55,-0.08,1.53,-0.10,1.52,-1.62,-2.35,-3.20,-1.70,-1.72,-1.61
124.79,0.04,1.69,0.04,1.69,-1.71,-2.39,-3.18,-1.67,-1.66,-1.65
126.03,0.21,1.90,0.20,1.88,-1.83,-2.42,-3.16,-1.62,-1.63,-1.69
127.29,0.33,2.05,0.34,2.06,-1.97,-2.45,-3.14,-1.64,-1.63,-1.72
128.57,0.46,2.22,0.44,2.20,-2.11,-2.47,-3.10,-1.65,-1.67,-1.76
129.85,0.51,2.30,0.50,2.29,-2.23,-2.49,-3.06,-1.72,-1.74,-1.79
131.15,0.51,2.33,0.52,2.34,-2.32,-2.50,-3.02,-1.81,-1.80,-1.82
132.46,0.51,2.36,0.52,2.37,-2.37,-2.50,-2.97,-1.86,-1.85,-1.85
133.79,0.51,2.39,0.52,2.40,-2.40,-2.50,-2.91,-1.89,-1.88,-1.88
135.12,0.50,2.43,0.48,2.40,-2.40,-2.50,-2.85,-1.90,-1.91,-1.93
136.48,0.45,2.41,0.42,2.37,-2.38,-2.49,-2.79,-1.93,-1.96,-1.96
137.84,0.30,2.29,0.36,2.35,-2.36,-2.47,-2.72,-2.06,-2.00,-1.99
139.22,0.28,2.32,0.29,2.33,-2.34,-2.44,-2.64,-2.06,-2.05,-2.04
140.61,0.28,2.37,0.23,2.31,-2.32,-2.41,-2.57,-2.04,-2.09,-2.09
142.02,0.17,2.28,0.17,2.29,-2.30,-2.37,-2.48,-2.13,-2.13,-2.11
143.44,0.08,2.23,0.11,2.26,-2.28,-2.33,-2.40,-2.20,-2.17,-2.15
144.87,0.05,2.24,0.06,2.25,-2.26,-2.28,-2.31,-2.21,-2.20,-2.19
146.32,0.05,2.29,0.04,2.27,-2.24,-2.23,-2.22,-2.19,-2.21,-2.24
147.78,0.00,2.28,-0.02,2.26,-2.23,-2.18,-2.13,-2.23,-2.26,-2.28
149.26,-0.12,2.23,-0.13,2.22,-2.23,-2.12,-2.04,-2.35,-2.36,-2.35
150.75,-0.28,2.15,-0.25,2.17,-2.22,-2.06,-1.95,-2.50,-2.47,-2.43
152.26,-0.37,2.13,-0.34,2.16,-2.21,-1.99,-1.85,-2.58,-2.55,-2.50
153.78,-0.40,2.17,-0.41,2.17,-2.18,-1.93,-1.75,-2.58,-2.59,-2.57
155.32,-0.45,2.22,-0.50,2.16,-2.12,-1.86,-1.66,-2.57,-2.62,-2.67
156.88,-0.63,2.11,-0.61,2.13,-2.04,-1.79,-1.56,-2.67,-2.64,-2.74
158.44,-0.80,2.01,-0.77,2.05,-1.93,-1.72,-1.46,-2.73,-2.70,-2.81
160.03,-0.92,1.97,-0.97,1.92,-1.83,-1.65,-1.36,-2.75,-2.80,-2.89
161.63,-1.19,1.76,-1.21,1.74,-1.73,-1.58,-1.26,-2.92,-2.94,-2.95
163.24,-1.45,1.55,-1.46,1.54,-1.65,-1.51,-1.17,-3.10,-3.11,-3.00
164.88,-1.71,1.33,-1.64,1.40,-1.58,-1.44,-1.07,-3.29,-3.22,-3.04
166.53,-1.72,1.36,-1.69,1.39,-1.53,-1.38,-0.97,-3.25,-3.22,-3.08
168.19,-1.61,1.50,-1.65,1.46,-1.50,-1.31,-0.87,-3.11,-3.15,-3.11
169.87,-1.54,1.58,-1.57,1.55,-1.49,-1.24,-0.77,-3.03,-3.06,-3.12
171.57,-1.54,1.59,-1.51,1.61,-1.49,-1.18,-0.67,-3.03,-3.01,-3.13
173.29,-1.54,1.59,-1.54,1.59,-1.49,-1.11,-0.58,-3.03,-3.03,-3.13
175.02,-1.54,1.57,-1.60,1.52,-1.47,-1.05,-0.48,-3.01,-3.07,-3.11
176.77,-1.73,1.39,-1.67,1.44,-1.43,-0.99,-0.38,-3.16,-3.10,-3.12
178.54,-1.77,1.34,-1.77,1.34,-1.35,-0.93,-0.28,-3.12,-3.11,-3.11
180.32,-1.85,1.25,-1.87,1.24,-1.25,-0.87,-0.19,-3.10,-3.12,-3.10
182.13,-1.95,1.15,-1.97,1.13,-1.14,-0.81,-0.09,-3.09,-3.11,-3.10
183.95,-2.09,1.01,-2.07,1.03,-1.04,-0.75,0.00,-3.13,-3.12,-3.10
185.79,-2.22,0.89,-2.19,0.93,-0.96,-0.70,0.10,-3.18,-3.15,-3.11
187.65,-2.23,0.90,-2.29,0.83,-0.89,-0.64,0.19,-3.12,-3.18,-3.13
189.52,-2.40,0.75,-2.36,0.79,-0.82,-0.59,0.29,-3.22,-3.18,-3.15
191.42,-2.45,0.72,-2.42,0.75,-0.74,-0.53,0.38,-3.19,-3.17,-3.17
193.33,-2.45,0.74,-2.49,0.69,-0.66,-0.48,0.48,-3.11,-3.15,-3.19
195.27,-2.56,0.63,-2.55,0.65,-0.58,-0.43,0.57,-3.14,-3.13,-3.19
197.22,-2.66,0.55,-2.67,0.54,-0.49,-0.37,0.66,-3.15,-3.16,-3.21
199.19,-2.82,0.43,-2.84,0.39,-0.38,-0.32,0.76,-3.20,-3.23,-3.25
201.18,-3.05,0.20,-3.01,0.25,-0.26,-0.27,0.85,-3.31,-3.28,-3.25
203.19,-3.18,0.09,-3.18,0.09,-0.13,-0.22,0.94,-3.31,-3.31,-3.27
205.23,-3.31,-0.01,-3.32,-0.03,0.02,-0.17,1.03,-3.29,-3.30,-3.30
207.28,-3.45,-0.15,-3.43,-0.12,0.16,-0.11,1.12,-3.29,-3.27,-3.30
209.35,-3.56,-0.24,-3.59,-0.26,0.30,-0.06,1.20,-3.26,-3.29,-3.32
211.44,-3.72,-0.37,-3.76,-0.43,0.41,-0.01,1.29,-3.31,-3.35,-3.35
213.56,-3.97,-0.62,-3.91,-0.56,0.52,0.05,1.37,-3.45,-3.39,-3.35
215.69,-4.05,-0.70,-4.02,-0.66,0.61,0.10,1.46,-3.44,-3.41,-3.35
217.85,-4.05,-0.67,-4.10,-0.73,0.69,0.16,1.54,-3.36,-3.41,-3.38
220.03,-4.14,-0.75,-4.15,-0.76,0.76,0.21,1.62,-3.38,-3.39,-3.39
222.23,-4.24,-0.83,-4.20,-0.80,0.82,0.27,1.69,-3.42,-3.38,-3.41
224.45,-4.28,-0.87,-4.27,-0.86,0.87,0.33,1.76,-3.41,-3.40,-3.41
226.70,-4.28,-0.87,-4.34,-0.92,0.93,0.39,1.83,-3.35,-3.41,-3.41
228.96,-4.43,-1.01,-4.39,-0.97,0.99,0.46,1.90,-3.44,-3.40,-3.42
231.25,-4.49,-1.07,-4.48,-1.05,1.07,0.52,1.96,-3.42,-3.41,-3.42
233.57,-4.54,-1.11,-4.59,-1.16,1.17,0.59,2.02,-3.37,-3.42,-3.43
235.90,-4.72,-1.28,-4.69,-1.26,1.28,0.66,2.08,-3.44,-3.41,-3.44
238.26,-4.84,-1.40,-4.82,-1.38,1.41,0.73,2.13,-3.43,-3.41,-3.44
240.64,-4.95,-1.51,-4.99,-1.55,1.55,0.81,2.18,-3.40,-3.44,-3.44
243.05,-5.12,-1.69,-5.13,-1.70,1.69,0.89,2.22,-3.43,-3.44,-3.43
245.48,-5.35,-1.93,-5.30,-1.88,1.84,0.97,2.26,-3.50,-3.46,-3.42
247.93,-5.42,-2.01,-5.45,-2.04,2.00,1.06,2.29,-3.42,-3.45,-3.41
250.41,-5.61,-2.19,-5.58,-2.17,2.17,1.15,2.32,-3.43,-3.41,-3.42
252.92,-5.69,-2.28,-5.70,-2.30,2.35,1.24,2.35,-3.34,-3.35,-3.41
255.45,-5.84,-2.46,-5.86,-2.47,2.52,1.34,2.37,-3.32,-3.35,-3.38
258.00,-6.01,-2.63,-6.02,-2.64,2.67,1.45,2.38,-3.34,-3.35,-3.38
260.58,-6.24,-2.86,-6.21,-2.84,2.81,1.56,2.39,-3.43,-3.40,-3.38
263.19,-6.34,-2.98,-6.38,-3.01,2.95,1.67,2.40,-3.39,-3.43,-3.36
265.82,-6.53,-3.17,-6.49,-3.14,3.07,1.79,2.41,-3.46,-3.42,-3.36
268.48,-6.56,-3.23,-6.54,-3.20,3.19,1.91,2.41,-3.37,-3.35,-3.33
271.16,-6.56,-3.24,-6.57,-3.26,3.28,2.04,2.40,-3.28,-3.29,-3.32
273.87,-6.56,-3.25,-6.61,-3.31,3.36,2.18,2.40,-3.20,-3.25,-3.31
276.61,-6.69,-3.42,-6.67,-3.39,3.43,2.31,2.39,-3.26,-3.25,-3.27
279.38,-6.77,-3.51,-6.74,-3.49,3.48,2.45,2.37,-3.29,-3.26,-3.26
282.17,-6.78,-3.55,-6.78,-3.56,3.52,2.60,2.36,-3.26,-3.26,-3.23
284.99,-6.78,-3.58,-6.79,-3.58,3.57,2.74,2.34,-3.21,-3.22,-3.20
287.84,-6.78,-3.60,-6.78,-3.61,3.61,2.89,2.33,-3.16,-3.17,-3.18
290.72,-6.78,-3.64,-6.78,-3.64,3.66,3.03,2.31,-3.12,-3.12,-3.14
293.63,-6.78,-3.66,-6.78,-3.67,3.69,3.17,2.29,-3.09,-3.09,-3.12
296.57,-6.78,-3.69,-6.78,-3.69,3.72,3.30,2.27,-3.06,-3.06,-3.09
299.53,-6.78,-3.72,-6.78,-3.72,3.72,3.42,2.25,-3.06,-3.06,-3.06
302.53,-6.78,-3.73,-6.79,-3.75,3.72,3.53,2.23,-3.06,-3.07,-3.05
305.55,-6.78,-3.77,-6.76,-3.74,3.70,3.63,2.21,-3.08,-3.05,-3.01
308.61,-6.73,-3.74,-6.71,-3.72,3.67,3.70,2.18,-3.05,-3.03,-2.99
311.69,-6.58,-3.60,-6.63,-3.66,3.63,3.76,2.16,-2.94,-2.99,-2.98
314.81,-6.56,-3.61,-6.51,-3.56,3.58,3.80,2.14,-2.98,-2.93,-2.95
317.96,-6.41,-3.46,-6.42,-3.47,3.52,3.81,2.13,-2.89,-2.90,-2.95
321.14,-6.33,-3.37,-6.37,-3.42,3.44,3.80,2.11,-2.89,-2.93,-2.96
324.35,-6.33,-3.38,-6.31,-3.36,3.37,3.77,2.09,-2.96,-2.94,-2.95
327.59,-6.30,-3.36,-6.26,-3.32,3.30,3.71,2.08,-3.00,-2.97,-2.94
330.87,-6.15,-3.22,-6.19,-3.25,3.23,3.64,2.06,-2.92,-2.96,-2.93
334.18,-6.10,-3.17,-6.07,-3.15,3.16,3.55,2.05,-2.93,-2.91,-2.93
337.52,-5.97,-3.05,-5.98,-3.07,3.10,3.45,2.04,-2.87,-2.88,-2.92
340.90,-5.89,-3.00,-5.92,-3.02,3.04,3.34,2.03,-2.85,-2.88,-2.89
344.30,-5.87,-2.99,-5.86,-2.98,2.97,3.22,2.02,-2.90,-2.89,-2.88
347.75,-5.81,-2.94,-5.79,-2.93,2.90,3.09,2.01,-2.91,-2.89,-2.87
351.23,-5.69,-2.85,-5.68,-2.84,2.83,2.96,2.01,-2.86,-2.85,-2.84
354.74,-5.55,-2.73,-5.57,-2.76,2.77,2.83,2.00,-2.78,-2.81,-2.82
358.28,-5.44,-2.65,-5.46,-2.67,2.70,2.70,2.00,-2.74,-2.77,-2.79
361.87,-5.42,-2.65,-5.37,-2.60,2.61,2.58,2.00,-2.80,-2.76,-2.77
365.49,-5.25,-2.50,-5.28,-2.53,2.51,2.45,2.00,-2.74,-2.76,-2.75
369.14,-5.18,-2.45,-5.17,-2.45,2.40,2.33,2.01,-2.78,-2.77,-2.73
372.83,-5.02,-2.32,-5.02,-2.32,2.28,2.22,2.01,-2.74,-2.74,-2.70
376.56,-4.91,-2.23,-4.88,-2.20,2.16,2.11,2.02,-2.74,-2.71,-2.68
380.33,-4.67,-2.02,-4.69,-2.04,2.05,2.01,2.02,-2.62,-2.64,-2.65
384.13,-4.53,-1.90,-4.52,-1.88,1.94,1.91,2.03,-2.59,-2.58,-2.63
387.97,-4.35,-1.73,-4.38,-1.76,1.83,1.82,2.04,-2.52,-2.55,-2.62
391.85,-4.29,-1.67,-4.31,-1.70,1.73,1.73,2.06,-2.56,-2.58,-2.62
395.77,-4.28,-1.67,-4.25,-1.64,1.64,1.66,2.07,-2.64,-2.61,-2.61
399.73,-4.22,-1.62,-4.20,-1.60,1.56,1.58,2.08,-2.66,-2.64,-2.60
403.72,-4.09,-1.50,-4.12,-1.54,1.50,1.52,2.10,-2.59,-2.63,-2.59
407.76,-4.05,-1.47,-4.02,-1.44,1.44,1.45,2.11,-2.61,-2.57,-2.58
411.84,-3.92,-1.35,-3.92,-1.36,1.38,1.40,2.13,-2.54,-2.54,-2.57
415.96,-3.83,-1.27,-3.87,-1.31,1.31,1.35,2.14,-2.51,-2.56,-2.56
420.12,-3.82,-1.26,-3.81,-1.25,1.24,1.30,2.16,-2.58,-2.57,-2.56
424.32,-3.80,-1.24,-3.75,-1.20,1.16,1.26,2.18,-2.64,-2.60,-2.56
428.56,-3.65,-1.09,-3.68,-1.12,1.08,1.23,2.19,-2.57,-2.60,-2.56
432.85,-3.59,-1.02,-3.58,-1.02,1.01,1.20,2.21,-2.58,-2.57,-2.57
437.18,-3.49,-0.93,-3.48,-0.92,0.96,1.18,2.22,-2.53,-2.52,-2.56
441.55,-3.40,-0.85,-3.42,-0.87,0.91,1.17,2.23,-2.49,-2.51,-2.55
445.96,-3.37,-0.82,-3.37,-0.83,0.86,1.16,2.25,-2.51,-2.51,-2.55
450.42,-3.37,-0.83,-3.36,-0.82,0.83,1.16,2.26,-2.54,-2.54,-2.54
454.93,-3.37,-0.84,-3.37,-0.84,0.80,1.17,2.27,-2.57,-2.57,-2.53
459.48,-3.37,-0.85,-3.37,-0.86,0.79,1.19,2.27,-2.58,-2.58,-2.52
464.07,-3.37,-0.87,-3.37,-0.87,0.82,1.22,2.28,-2.55,-2.55,-2.50
468.71,-3.37,-0.89,-3.35,-0.87,0.87,1.27,2.28,-2.50,-2.48,-2.48
473.40,-3.37,-0.90,-3.36,-0.89,0.96,1.32,2.28,-2.41,-2.40,-2.47
478.13,-3.37,-0.93,-3.41,-0.97,1.07,1.40,2.27,-2.30,-2.34,-2.44
482.91,-3.57,-1.15,-3.56,-1.15,1.23,1.49,2.27,-2.34,-2.34,-2.42
