frequency,raw,error,smoothed,error_smoothed,equalization,parametric_eq,fixed_band_eq,equalized_raw,equalized_smoothed,target
20.00,-0.40,-3.41,-0.38,-3.40,3.40,-0.44,0.62,3.00,3.02,3.01
20.20,-0.32,-3.36,-0.31,-3.36,3.36,-0.44,0.64,3.04,3.05,3.05
20.40,-0.24,-3.31,-0.24,-3.32,3.32,-0.45,0.66,3.08,3.08,3.08
20.61,-0.16,-3.26,-0.17,-3.28,3.28,-0.46,0.68,3.11,3.11,3.10
20.81,-0.08,-3.22,-0.10,-3.23,3.23,-0.47,0.70,3.15,3.13,3.14
21.02,0.00,-3.18,-0.03,-3.18,3.18,-0.48,0.72,3.18,3.16,3.18
21.23,0.06,-3.13,0.04,-3.14,3.14,-0.48,0.75,3.20,3.18,3.19
21.44,0.13,-3.08,0.11,-3.09,3.09,-0.49,0.77,3.22,3.20,3.21
21.66,0.20,-3.03,0.18,-3.03,3.03,-0.50,0.80,3.23,3.22,3.23
21.87,0.26,-2.98,0.25,-2.98,2.98,-0.51,0.82,3.24,3.24,3.24
22.09,0.32,-2.94,0.32,-2.93,2.93,-0.52,0.85,3.25,3.25,3.26
22.31,0.38,-2.88,0.39,-2.87,2.87,-0.53,0.88,3.25,3.27,3.26
22.54,0.44,-2.83,0.46,-2.81,2.81,-0.54,0.90,3.25,3.28,3.27
22.76,0.50,-2.78,0.53,-2.75,2.75,-0.54,0.93,3.25,3.28,3.28
22.99,0.56,-2.72,0.60,-2.69,2.69,-0.55,0.96,3.25,3.29,3.28
23.22,0.65,-2.64,0.67,-2.62,2.62,-0.56,0.99,3.28,3.30,3.29
23.45,0.74,-2.56,0.74,-2.56,2.56,-0.57,1.02,3.30,3.30,3.30
23.69,0.84,-2.47,0.81,-2.49,2.49,-0.58,1.05,3.33,3.31,3.31
23.92,0.93,-2.38,0.88,-2.43,2.43,-0.59,1.08,3.36,3.31,3.32
24.16,0.99,-2.33,0.96,-2.36,2.36,-0.60,1.12,3.35,3.31,3.32
24.40,1.04,-2.29,1.02,-2.29,2.29,-0.61,1.15,3.34,3.32,3.33
24.65,1.09,-2.23,1.09,-2.23,2.23,-0.62,1.18,3.32,3.32,3.32
24.89,1.14,-2.18,1.15,-2.17,2.17,-0.63,1.22,3.31,3.32,3.32
25.14,1.20,-2.12,1.21,-2.11,2.11,-0.64,1.25,3.31,3.32,3.32
25.39,1.26,-2.06,1.27,-2.05,2.05,-0.65,1.28,3.31,3.32,3.32
25.65,1.33,-1.99,1.34,-1.99,1.99,-0.66,1.32,3.32,3.32,3.32
25.91,1.40,-1.91,1.40,-1.92,1.92,-0.68,1.35,3.32,3.32,3.31
26.16,1.45,-1.86,1.45,-1.87,1.87,-0.69,1.38,3.32,3.32,3.32
26.43,1.49,-1.82,1.50,-1.81,1.81,-0.70,1.42,3.30,3.31,3.31
26.69,1.54,-1.77,1.56,-1.76,1.76,-0.71,1.45,3.30,3.31,3.31
26.96,1.58,-1.73,1.61,-1.70,1.70,-0.72,1.48,3.28,3.31,3.31
27.23,1.65,-1.66,1.66,-1.65,1.65,-0.73,1.51,3.30,3.31,3.31
27.50,1.73,-1.58,1.71,-1.59,1.59,-0.74,1.54,3.32,3.30,3.31
27.77,1.80,-1.50,1.76,-1.54,1.54,-0.75,1.57,3.34,3.30,3.30
28.05,1.86,-1.44,1.81,-1.49,1.49,-0.77,1.59,3.35,3.30,3.30
28.33,1.87,-1.41,1.86,-1.44,1.44,-0.78,1.62,3.31,3.30,3.28
28.62,1.87,-1.42,1.90,-1.40,1.40,-0.79,1.64,3.27,3.29,3.29
28.90,1.88,-1.41,1.93,-1.36,1.36,-0.80,1.66,3.24,3.29,3.29
29.19,1.92,-1.36,1.96,-1.32,1.32,-0.82,1.68,3.25,3.29,3.28
29.48,1.99,-1.30,1.99,-1.30,1.30,-0.83,1.70,3.29,3.28,3.29
29.78,2.05,-1.24,2.01,-1.27,1.27,-0.84,1.71,3.32,3.28,3.29
30.08,2.10,-1.18,2.03,-1.25,1.25,-0.85,1.72,3.35,3.27,3.28
30.38,2.10,-1.17,2.05,-1.22,1.22,-0.87,1.73,3.32,3.27,3.27
30.68,2.10,-1.17,2.06,-1.20,1.20,-0.88,1.74,3.30,3.26,3.27
30.99,2.10,-1.16,2.09,-1.17,1.17,-0.89,1.74,3.27,3.26,3.26
31.30,2.10,-1.15,2.11,-1.14,1.14,-0.91,1.74,3.24,3.25,3.25
31.61,2.10,-1.15,2.15,-1.10,1.10,-0.92,1.73,3.20,3.25,3.25
31.93,2.10,-1.14,2.19,-1.05,1.05,-0.93,1.73,3.15,3.24,3.24
32.24,2.16,-1.07,2.24,-1.00,1.00,-0.95,1.72,3.16,3.24,3.23
32.57,2.23,-0.99,2.29,-0.94,0.94,-0.96,1.70,3.17,3.23,3.22
32.89,2.31,-0.91,2.33,-0.89,0.89,-0.97,1.69,3.20,3.22,3.22
33.22,2.38,-0.84,2.38,-0.84,0.84,-0.99,1.67,3.22,3.22,3.22
33.55,2.46,-0.75,2.44,-0.77,0.77,-1.00,1.65,3.23,3.21,3.22
33.89,2.53,-0.68,2.51,-0.70,0.70,-1.02,1.63,3.23,3.21,3.21
34.23,2.61,-0.60,2.57,-0.63,0.63,-1.03,1.60,3.24,3.20,3.21
34.57,2.69,-0.50,2.64,-0.55,0.55,-1.05,1.57,3.25,3.20,3.19
34.92,2.77,-0.42,2.71,-0.48,0.48,-1.06,1.55,3.25,3.19,3.19
35.27,2.79,-0.40,2.77,-0.42,0.42,-1.08,1.51,3.21,3.18,3.19
35.62,2.79,-0.38,2.82,-0.36,0.36,-1.09,1.48,3.15,3.18,3.17
35.97,2.79,-0.38,2.87,-0.30,0.30,-1.11,1.45,3.10,3.17,3.17
36.33,2.87,-0.29,2.91,-0.25,0.25,-1.12,1.41,3.12,3.16,3.17
36.70,2.95,-0.21,2.95,-0.21,0.21,-1.14,1.38,3.16,3.16,3.16
37.06,3.02,-0.13,2.98,-0.17,0.17,-1.15,1.34,3.19,3.15,3.15
37.43,3.02,-0.12,3.00,-0.14,0.14,-1.17,1.31,3.16,3.14,3.14
37.81,3.02,-0.12,3.01,-0.12,0.12,-1.18,1.27,3.14,3.13,3.14
38.19,3.02,-0.10,3.02,-0.11,0.11,-1.20,1.23,3.13,3.13,3.12
38.57,3.02,-0.10,3.02,-0.10,0.10,-1.21,1.19,3.12,3.12,3.12
38.95,3.02,-0.09,3.02,-0.09,0.09,-1.23,1.15,3.11,3.11,3.11
39.34,3.02,-0.07,3.01,-0.09,0.09,-1.25,1.12,3.11,3.10,3.09
39.74,3.02,-0.06,2.99,-0.11,0.11,-1.26,1.08,3.13,3.10,3.08
40.14,2.99,-0.09,2.95,-0.13,0.13,-1.28,1.04,3.12,3.09,3.08
40.54,2.90,-0.17,2.90,-0.17,0.17,-1.29,1.00,3.07,3.07,3.08
40.94,2.80,-0.27,2.85,-0.21,0.21,-1.31,0.97,3.01,3.06,3.07
41.35,2.79,-0.26,2.79,-0.25,0.25,-1.33,0.93,3.04,3.04,3.05
41.76,2.79,-0.24,2.74,-0.28,0.28,-1.34,0.90,3.07,3.02,3.03
42.18,2.75,-0.27,2.69,-0.31,0.31,-1.36,0.86,3.06,3.00,3.02
42.60,2.65,-0.34,2.64,-0.34,0.34,-1.38,0.83,2.98,2.98,2.99
43.03,2.55,-0.42,2.60,-0.35,0.35,-1.39,0.79,2.90,2.95,2.97
43.46,2.45,-0.49,2.57,-0.36,0.36,-1.41,0.76,2.81,2.92,2.94
43.90,2.35,-0.54,2.53,-0.36,0.36,-1.43,0.72,2.72,2.90,2.89
44.33,2.33,-0.53,2.50,-0.37,0.37,-1.44,0.69,2.70,2.87,2.87
44.78,2.33,-0.50,2.45,-0.39,0.39,-1.46,0.66,2.72,2.84,2.83
45.23,2.32,-0.48,2.38,-0.44,0.44,-1.48,0.63,2.76,2.81,2.80
45.68,2.29,-0.48,2.27,-0.52,0.52,-1.49,0.60,2.81,2.78,2.77
46.13,2.25,-0.50,2.12,-0.64,0.64,-1.51,0.57,2.89,2.76,2.75
46.60,2.17,-0.56,1.95,-0.79,0.79,-1.53,0.54,2.96,2.74,2.73
47.06,2.07,-0.64,1.74,-0.98,0.98,-1.54,0.51,3.05,2.72,2.71
47.53,1.82,-0.88,1.51,-1.20,1.20,-1.56,0.48,3.02,2.71,2.70
48.01,1.57,-1.13,1.24,-1.46,1.46,-1.58,0.45,3.03,2.70,2.70
48.49,1.15,-1.53,0.94,-1.75,1.75,-1.59,0.42,2.90,2.69,2.69
48.97,0.72,-1.96,0.64,-2.05,2.05,-1.61,0.39,2.77,2.68,2.67
49.46,0.26,-2.40,0.33,-2.35,2.35,-1.63,0.37,2.61,2.68,2.66
49.96,-0.21,-2.86,0.04,-2.64,2.64,-1.65,0.34,2.43,2.67,2.66
50.46,-0.45,-3.11,-0.24,-2.90,2.90,-1.66,0.31,2.45,2.66,2.66
50.96,-0.66,-3.33,-0.47,-3.13,3.13,-1.68,0.29,2.47,2.65,2.67
51.47,-0.87,-3.52,-0.66,-3.30,3.30,-1.70,0.26,2.43,2.64,2.65
51.99,-1.08,-3.71,-0.79,-3.41,3.41,-1.71,0.24,2.33,2.62,2.64
52.51,-1.09,-3.71,-0.85,-3.45,3.45,-1.73,0.21,2.36,2.60,2.62
53.03,-1.08,-3.67,-0.85,-3.42,3.42,-1.75,0.19,2.34,2.57,2.59
53.56,-0.86,-3.41,-0.79,-3.33,3.33,-1.77,0.16,2.47,2.54,2.56
54.10,-0.65,-3.16,-0.68,-3.18,3.18,-1.78,0.14,2.53,2.50,2.51
54.64,-0.50,-2.96,-0.53,-2.99,2.99,-1.80,0.11,2.49,2.46,2.46
55.18,-0.32,-2.73,-0.35,-2.76,2.76,-1.82,0.09,2.44,2.41,2.41
55.74,-0.07,-2.42,-0.15,-2.51,2.51,-1.83,0.07,2.44,2.36,2.35
56.29,0.19,-2.11,0.04,-2.25,2.25,-1.85,0.04,2.44,2.30,2.30
56.86,0.44,-1.80,0.25,-1.99,1.99,-1.87,0.02,2.43,2.24,2.24
57.42,0.61,-1.55,0.45,-1.72,1.72,-1.88,-0.00,2.33,2.17,2.16
58.00,0.74,-1.36,0.64,-1.47,1.47,-1.90,-0.03,2.21,2.11,2.10
58.58,0.87,-1.17,0.82,-1.23,1.23,-1.92,-0.05,2.10,2.04,2.04
59.16,1.00,-0.98,0.99,-0.99,0.99,-1.93,-0.07,1.99,1.97,1.98
59.76,1.13,-0.79,1.15,-0.76,0.76,-1.95,-0.10,1.89,1.91,1.92
60.35,1.27,-0.57,1.32,-0.53,0.53,-1.97,-0.12,1.80,1.84,1.84
60.96,1.41,-0.38,1.47,-0.30,0.30,-1.98,-0.14,1.71,1.78,1.79
61.57,1.55,-0.16,1.63,-0.09,0.09,-2.00,-0.16,1.64,1.72,1.71
62.18,1.69,0.05,1.78,0.12,-0.12,-2.01,-0.19,1.57,1.65,1.64
62.80,1.84,0.25,1.93,0.34,-0.34,-2.03,-0.21,1.50,1.59,1.59
63.43,2.02,0.49,2.08,0.55,-0.55,-2.05,-0.23,1.48,1.54,1.53
64.07,2.23,0.75,2.24,0.75,-0.75,-2.06,-0.26,1.47,1.48,1.48
64.71,2.49,1.06,2.39,0.96,-0.96,-2.08,-0.28,1.53,1.43,1.43
65.35,2.67,1.30,2.55,1.17,-1.17,-2.09,-0.31,1.51,1.38,1.37
66.01,2.79,1.46,2.69,1.36,-1.36,-2.11,-0.33,1.43,1.34,1.33
66.67,2.79,1.50,2.83,1.54,-1.54,-2.12,-0.36,1.25,1.29,1.29
67.33,2.90,1.65,2.96,1.71,-1.71,-2.14,-0.38,1.20,1.25,1.25
68.01,3.11,1.90,3.07,1.86,-1.86,-2.15,-0.41,1.25,1.21,1.21
68.69,3.20,2.02,3.17,1.99,-1.99,-2.17,-0.43,1.21,1.18,1.18
69.37,3.24,2.10,3.25,2.11,-2.11,-2.18,-0.46,1.13,1.14,1.14
70.07,3.26,2.16,3.32,2.21,-2.21,-2.20,-0.48,1.05,1.10,1.10
70.77,3.42,2.34,3.37,2.30,-2.30,-2.21,-0.51,1.12,1.07,1.08
71.48,3.47,2.43,3.40,2.38,-2.38,-2.22,-0.54,1.10,1.03,1.04
72.19,3.47,2.46,3.44,2.44,-2.44,-2.24,-0.57,1.03,0.99,1.01
72.91,3.47,2.51,3.47,2.51,-2.51,-2.25,-0.60,0.96,0.96,0.96
73.64,3.47,2.54,3.50,2.58,-2.58,-2.27,-0.63,0.89,0.92,0.93
74.38,3.47,2.58,3.53,2.64,-2.64,-2.28,-0.66,0.83,0.88,0.89
75.12,3.47,2.62,3.54,2.69,-2.69,-2.29,-0.69,0.78,0.85,0.85
75.87,3.47,2.66,3.54,2.73,-2.73,-2.30,-0.72,0.74,0.81,0.81
76.63,3.47,2.70,3.53,2.76,-2.76,-2.32,-0.75,0.71,0.78,0.77
77.40,3.47,2.73,3.51,2.77,-2.77,-2.33,-0.78,0.70,0.74,0.74
78.17,3.47,2.77,3.47,2.75,-2.75,-2.34,-0.82,0.72,0.71,0.70
78.95,3.47,2.79,3.40,2.71,-2.71,-2.35,-0.85,0.76,0.68,0.68
79.74,3.47,2.81,3.32,2.66,-2.66,-2.36,-0.89,0.81,0.66,0.66
80.54,3.39,2.76,3.23,2.60,-2.60,-2.38,-0.92,0.79,0.63,0.63
81.35,3.30,2.70,3.14,2.52,-2.52,-2.39,-0.96,0.78,0.61,0.60
82.16,3.18,2.59,3.04,2.44,-2.44,-2.40,-1.00,0.74,0.60,0.59
82.98,2.92,2.34,2.94,2.35,-2.35,-2.41,-1.04,0.57,0.58,0.58
83.81,2.81,2.24,2.84,2.27,-2.27,-2.42,-1.08,0.54,0.57,0.57
84.65,2.61,2.06,2.74,2.18,-2.18,-2.43,-1.12,0.43,0.56,0.55
85.50,2.42,1.87,2.64,2.09,-2.09,-2.44,-1.16,0.33,0.55,0.55
86.35,2.33,1.79,2.54,2.00,-2.00,-2.45,-1.21,0.33,0.54,0.54
87.22,2.33,1.80,2.45,1.92,-1.92,-2.46,-1.25,0.41,0.54,0.53
88.09,2.33,1.81,2.37,1.85,-1.85,-2.47,-1.30,0.49,0.53,0.52
88.97,2.33,1.80,2.31,1.79,-1.79,-2.47,-1.35,0.54,0.52,0.53
89.86,2.33,1.81,2.25,1.75,-1.75,-2.48,-1.39,0.58,0.51,0.52
90.76,2.33,1.83,2.22,1.72,-1.72,-2.49,-1.44,0.61,0.50,0.50
91.66,2.33,1.84,2.19,1.71,-1.71,-2.50,-1.49,0.62,0.48,0.49
92.58,2.25,1.79,2.18,1.72,-1.72,-2.50,-1.55,0.53,0.47,0.46
93.51,2.15,1.70,2.17,1.73,-1.73,-2.51,-1.60,0.43,0.45,0.46
94.44,2.10,1.67,2.17,1.75,-1.75,-2.52,-1.65,0.35,0.42,0.43
95.39,2.10,1.70,2.17,1.77,-1.77,-2.52,-1.70,0.33,0.40,0.41
96.34,2.10,1.74,2.16,1.79,-1.79,-2.53,-1.76,0.31,0.37,0.36
97.30,2.10,1.77,2.13,1.80,-1.80,-2.53,-1.81,0.31,0.34,0.33
98.28,2.10,1.80,2.12,1.82,-1.82,-2.54,-1.87,0.29,0.30,0.30
99.26,2.10,1.84,2.10,1.84,-1.84,-2.54,-1.93,0.26,0.26,0.26
100.25,2.10,1.88,2.09,1.87,-1.87,-2.55,-1.98,0.23,0.22,0.22
101.25,2.10,1.92,2.08,1.90,-1.90,-2.55,-2.04,0.20,0.18,0.18
102.27,2.10,1.97,2.07,1.94,-1.94,-2.55,-2.10,0.16,0.12,0.13
103.29,2.10,2.03,2.06,1.99,-1.99,-2.56,-2.15,0.11,0.07,0.07
104.32,2.05,2.03,2.03,2.02,-2.02,-2.56,-2.21,0.03,0.01,0.02
105.37,1.93,1.97,2.00,2.05,-2.05,-2.56,-2.26,-0.12,-0.05,-0.03
106.42,1.88,1.98,1.95,2.07,-2.07,-2.56,-2.32,-0.18,-0.12,-0.10
107.48,1.88,2.06,1.88,2.07,-2.07,-2.56,-2.37,-0.19,-0.19,-0.18
108.56,1.88,2.15,1.80,2.07,-2.07,-2.56,-2.42,-0.19,-0.27,-0.27
109.64,1.73,2.08,1.69,2.04,-2.04,-2.56,-2.47,-0.31,-0.35,-0.35
110.74,1.64,2.06,1.55,1.98,-1.98,-2.56,-2.51,-0.34,-0.43,-0.42
111.85,1.45,1.95,1.39,1.90,-1.90,-2.56,-2.56,-0.45,-0.51,-0.50
112.97,1.40,2.00,1.21,1.81,-1.81,-2.56,-2.60,-0.41,-0.59,-0.60
114.10,1.15,1.83,1.03,1.70,-1.70,-2.56,-2.63,-0.55,-0.68,-0.67
115.24,0.93,1.69,0.85,1.60,-1.60,-2.55,-2.67,-0.67,-0.75,-0.76
116.39,0.79,1.64,0.69,1.52,-1.52,-2.55,-2.69,-0.73,-0.83,-0.85
117.55,0.59,1.51,0.54,1.44,-1.44,-2.55,-2.72,-0.85,-0.90,-0.92
118.73,0.32,1.32,0.41,1.38,-1.38,-2.54,-2.74,-1.06,-0.97,-1.00
119.92,0.06,1.11,0.30,1.34,-1.34,-2.54,-2.75,-1.27,-1.04,-1.05
121.12,-0.17,0.95,0.22,1.31,-1.31,-2.53,-2.76,-1.48,-1.10,-1.11
122.33,-0.18,0.99,0.17,1.32,-1.32,-2.53,-2.76,-1.50,-1.15,-1.17
123.55,-0.08,1.12,0.15,1.36,-1.36,-2.52,-2.76,-1.44,-1.21,-1.20
124.79,0.04,1.29,0.15,1.41,-1.41,-2.51,-2.75,-1.37,-1.25,-1.25
126.03,0.21,1.50,0.17,1.47,-1.47,-2.50,-2.74,-1.25,-1.30,-1.29
127.29,0.33,1.67,0.21,1.55,-1.55,-2.49,-2.72,-1.22,-1.34,-1.33
128.57,0.46,1.84,0.26,1.64,-1.64,-2.48,-2.69,-1.18,-1.39,-1.38
129.85,0.51,1.93,0.31,1.74,-1.74,-2.47,-2.66,-1.22,-1.43,-1.42
131.15,0.51,1.97,0.36,1.83,-1.83,-2.46,-2.62,-1.32,-1.47,-1.46
132.46,0.51,2.02,0.40,1.92,-1.92,-2.45,-2.58,-1.41,-1.51,-1.51
133.79,0.51,2.06,0.44,1.99,-1.99,-2.43,-2.53,-1.48,-1.55,-1.55
135.12,0.50,2.10,0.46,2.05,-2.05,-2.42,-2.48,-1.55,-1.59,-1.60
136.48,0.45,2.09,0.44,2.08,-2.08,-2.40,-2.43,-1.63,-1.64,-1.64
137.84,0.30,1.98,0.40,2.08,-2.08,-2.39,-2.37,-1.78,-1.68,-1.68
139.22,0.28,2.02,0.35,2.07,-2.07,-2.37,-2.30,-1.79,-1.73,-1.74
140.61,0.28,2.08,0.28,2.06,-2.06,-2.35,-2.23,-1.78,-1.77,-1.80
142.02,0.17,2.00,0.22,2.05,-2.05,-2.33,-2.16,-1.88,-1.83,-1.83
143.44,0.08,1.96,0.15,2.03,-2.03,-2.31,-2.09,-1.95,-1.88,-1.88
144.87,0.05,1.98,0.09,2.03,-2.03,-2.29,-2.01,-1.98,-1.94,-1.93
146.32,0.05,2.04,0.03,2.03,-2.03,-2.27,-1.93,-1.98,-2.00,-1.99
147.78,0.00,2.03,-0.04,2.03,-2.03,-2.25,-1.85,-2.03,-2.07,-2.03
149.26,-0.12,1.99,-0.13,2.01,-2.01,-2.22,-1.77,-2.13,-2.14,-2.11
150.75,-0.28,1.91,-0.24,1.97,-1.97,-2.20,-1.68,-2.25,-2.21,-2.19
152.26,-0.37,1.90,-0.37,1.93,-1.93,-2.17,-1.60,-2.30,-2.29,-2.27
153.78,-0.40,1.95,-0.49,1.87,-1.87,-2.14,-1.51,-2.27,-2.37,-2.35
155.32,-0.45,2.01,-0.63,1.81,-1.81,-2.11,-1.42,-2.26,-2.45,-2.45
156.88,-0.63,1.91,-0.77,1.76,-1.76,-2.08,-1.33,-2.38,-2.53,-2.54
158.44,-0.80,1.82,-0.89,1.71,-1.71,-2.05,-1.25,-2.51,-2.60,-2.62
160.03,-0.92,1.78,-1.01,1.66,-1.66,-2.01,-1.16,-2.58,-2.68,-2.70
161.63,-1.19,1.58,-1.13,1.61,-1.61,-1.98,-1.07,-2.80,-2.74,-2.76
163.24,-1.45,1.37,-1.24,1.56,-1.56,-1.94,-0.98,-3.01,-2.80,-2.82
164.88,-1.71,1.16,-1.33,1.52,-1.52,-1.90,-0.89,-3.23,-2.85,-2.87
166.53,-1.72,1.20,-1.42,1.48,-1.48,-1.86,-0.80,-3.20,-2.89,-2.91
168.19,-1.61,1.34,-1.50,1.43,-1.43,-1.82,-0.71,-3.04,-2.92,-2.95
169.87,-1.54,1.43,-1.57,1.38,-1.38,-1.77,-0.62,-2.92,-2.95,-2.97
171.57,-1.54,1.45,-1.64,1.33,-1.33,-1.72,-0.54,-2.86,-2.97,-2.99
173.29,-1.54,1.45,-1.71,1.27,-1.27,-1.68,-0.45,-2.81,-2.98,-2.99
175.02,-1.54,1.44,-1.76,1.23,-1.23,-1.63,-0.36,-2.77,-2.99,-2.98
176.77,-1.73,1.26,-1.81,1.19,-1.19,-1.57,-0.27,-2.92,-3.00,-2.99
178.54,-1.77,1.22,-1.85,1.15,-1.15,-1.52,-0.18,-2.92,-3.00,-2.99
180.32,-1.85,1.14,-1.88,1.12,-1.12,-1.46,-0.10,-2.97,-3.01,-2.99
182.13,-1.95,1.04,-1.93,1.08,-1.08,-1.40,-0.01,-3.03,-3.01,-2.99
183.95,-2.09,0.90,-2.00,1.02,-1.02,-1.34,0.08,-3.11,-3.02,-2.99
185.79,-2.22,0.79,-2.10,0.93,-0.93,-1.27,0.16,-3.15,-3.03,-3.01
187.65,-2.23,0.80,-2.20,0.84,-0.84,-1.20,0.25,-3.07,-3.04,-3.03
189.52,-2.40,0.66,-2.31,0.75,-0.75,-1.13,0.34,-3.14,-3.06,-3.06
191.42,-2.45,0.63,-2.42,0.66,-0.66,-1.06,0.42,-3.11,-3.08,-3.08
193.33,-2.45,0.66,-2.53,0.57,-0.57,-0.98,0.51,-3.02,-3.10,-3.11
195.27,-2.56,0.56,-2.65,0.47,-0.47,-0.90,0.59,-3.03,-3.12,-3.12
197.22,-2.66,0.48,-2.77,0.37,-0.37,-0.82,0.68,-3.03,-3.14,-3.14
199.19,-2.82,0.36,-2.90,0.26,-0.26,-0.74,0.76,-3.08,-3.17,-3.18
201.18,-3.05,0.14,-3.04,0.15,-0.15,-0.65,0.84,-3.20,-3.19,-3.19
203.19,-3.18,0.03,-3.17,0.04,-0.04,-0.55,0.93,-3.22,-3.21,-3.21
205.23,-3.31,-0.07,-3.30,-0.07,0.07,-0.46,1.01,-3.24,-3.23,-3.24
207.28,-3.45,-0.20,-3.44,-0.18,0.18,-0.36,1.09,-3.27,-3.25,-3.25
209.35,-3.56,-0.28,-3.57,-0.30,0.30,-0.26,1.17,-3.26,-3.27,-3.28
211.44,-3.72,-0.42,-3.69,-0.40,0.40,-0.15,1.25,-3.32,-3.29,-3.30
213.56,-3.97,-0.66,-3.81,-0.50,0.50,-0.04,1.32,-3.47,-3.31,-3.31
215.69,-4.05,-0.73,-3.93,-0.60,0.60,0.08,1.40,-3.45,-3.33,-3.32
217.85,-4.05,-0.71,-4.02,-0.68,0.68,0.20,1.47,-3.37,-3.34,-3.34
220.03,-4.14,-0.78,-4.11,-0.75,0.75,0.32,1.54,-3.39,-3.36,-3.36
222.23,-4.24,-0.86,-4.20,-0.83,0.83,0.44,1.61,-3.41,-3.37,-3.38
224.45,-4.28,-0.89,-4.28,-0.89,0.89,0.57,1.68,-3.38,-3.38,-3.38
226.70,-4.28,-0.89,-4.37,-0.98,0.98,0.71,1.75,-3.30,-3.39,-3.39
228.96,-4.43,-1.03,-4.46,-1.06,1.06,0.84,1.81,-3.37,-3.40,-3.40
231.25,-4.49,-1.09,-4.55,-1.14,1.14,0.98,1.86,-3.35,-3.41,-3.40
233.57,-4.54,-1.12,-4.65,-1.23,1.23,1.13,1.92,-3.31,-3.42,-3.42
235.90,-4.72,-1.29,-4.75,-1.33,1.33,1.27,1.97,-3.39,-3.42,-3.43
238.26,-4.84,-1.41,-4.85,-1.43,1.43,1.42,2.02,-3.41,-3.42,-3.43
240.64,-4.95,-1.52,-4.99,-1.56,1.56,1.57,2.06,-3.39,-3.42,-3.43
243.05,-5.12,-1.70,-5.14,-1.71,1.71,1.72,2.11,-3.41,-3.42,-3.42
245.48,-5.35,-1.93,-5.29,-1.87,1.87,1.87,2.14,-3.48,-3.42,-3.42
247.93,-5.42,-2.01,-5.44,-2.02,2.02,2.02,2.17,-3.40,-3.42,-3.41
250.41,-5.61,-2.19,-5.59,-2.18,2.18,2.18,2.20,-3.43,-3.42,-3.42
252.92,-5.69,-2.28,-5.75,-2.34,2.34,2.33,2.23,-3.35,-3.41,-3.41
255.45,-5.84,-2.45,-5.89,-2.49,2.49,2.47,2.25,-3.35,-3.40,-3.39
258.00,-6.01,-2.62,-6.03,-2.64,2.64,2.62,2.27,-3.37,-3.39,-3.39
260.58,-6.24,-2.85,-6.17,-2.78,2.78,2.75,2.28,-3.46,-3.38,-3.38
263.19,-6.34,-2.97,-6.28,-2.91,2.91,2.89,2.29,-3.43,-3.37,-3.37
265.82,-6.53,-3.16,-6.39,-3.03,3.03,3.01,2.29,-3.50,-3.36,-3.37
268.48,-6.56,-3.21,-6.49,-3.14,3.14,3.13,2.30,-3.42,-3.35,-3.35
271.16,-6.56,-3.22,-6.57,-3.24,3.24,3.23,2.30,-3.32,-3.33,-3.33
273.87,-6.56,-3.24,-6.63,-3.32,3.32,3.33,2.30,-3.24,-3.31,-3.32
276.61,-6.69,-3.40,-6.69,-3.40,3.40,3.41,2.29,-3.29,-3.29,-3.29
279.38,-6.77,-3.49,-6.74,-3.47,3.47,3.48,2.28,-3.30,-3.27,-3.27
282.17,-6.78,-3.53,-6.78,-3.53,3.53,3.54,2.28,-3.25,-3.25,-3.25
284.99,-6.78,-3.55,-6.80,-3.58,3.58,3.58,2.26,-3.20,-3.22,-3.23
287.84,-6.78,-3.58,-6.82,-3.62,3.62,3.61,2.25,-3.16,-3.20,-3.20
290.72,-6.78,-3.61,-6.81,-3.64,3.64,3.62,2.24,-3.14,-3.17,-3.17
293.63,-6.78,-3.64,-6.80,-3.66,3.66,3.62,2.23,-3.12,-3.14,-3.14
296.57,-6.78,-3.66,-6.79,-3.67,3.67,3.61,2.21,-3.11,-3.12,-3.12
299.53,-6.78,-3.69,-6.77,-3.67,3.67,3.58,2.20,-3.11,-3.10,-3.09
302.53,-6.78,-3.70,-6.74,-3.67,3.67,3.54,2.19,-3.11,-3.07,-3.08
305.55,-6.78,-3.74,-6.71,-3.65,3.65,3.49,2.17,-3.13,-3.05,-3.04
308.61,-6.73,-3.70,-6.65,-3.61,3.61,3.42,2.16,-3.11,-3.04,-3.03
311.69,-6.58,-3.57,-6.60,-3.57,3.57,3.35,2.15,-3.01,-3.02,-3.01
314.81,-6.56,-3.58,-6.54,-3.53,3.53,3.28,2.13,-3.03,-3.01,-2.98
317.96,-6.41,-3.42,-6.48,-3.48,3.48,3.19,2.12,-2.93,-3.00,-2.99
321.14,-6.33,-3.34,-6.41,-3.42,3.42,3.11,2.11,-2.91,-2.99,-2.99
324.35,-6.33,-3.34,-6.34,-3.36,3.36,3.01,2.10,-2.97,-2.98,-2.98
327.59,-6.30,-3.32,-6.26,-3.29,3.29,2.92,2.10,-3.01,-2.97,-2.98
330.87,-6.15,-3.18,-6.18,-3.21,3.21,2.82,2.09,-2.93,-2.96,-2.97
334.18,-6.10,-3.13,-6.09,-3.14,3.14,2.73,2.08,-2.96,-2.95,-2.96
337.52,-5.97,-3.01,-6.01,-3.07,3.07,2.63,2.08,-2.90,-2.94,-2.96
340.90,-5.89,-2.96,-5.93,-3.00,3.00,2.54,2.08,-2.89,-2.93,-2.93
344.30,-5.87,-2.95,-5.85,-2.94,2.94,2.45,2.08,-2.93,-2.92,-2.92
347.75,-5.81,-2.90,-5.77,-2.87,2.87,2.36,2.08,-2.94,-2.90,-2.91
351.23,-5.69,-2.81,-5.68,-2.80,2.80,2.28,2.08,-2.89,-2.88,-2.88
354.74,-5.55,-2.69,-5.57,-2.71,2.71,2.19,2.09,-2.84,-2.86,-2.86
358.28,-5.44,-2.61,-5.45,-2.62,2.62,2.12,2.10,-2.82,-2.83,-2.83
361.87,-5.42,-2.60,-5.33,-2.52,2.52,2.04,2.10,-2.90,-2.81,-2.82
365.49,-5.25,-2.46,-5.21,-2.42,2.42,1.98,2.11,-2.83,-2.79,-2.79
369.14,-5.18,-2.41,-5.10,-2.33,2.33,1.91,2.13,-2.85,-2.77,-2.77
372.83,-5.02,-2.28,-4.98,-2.23,2.23,1.86,2.14,-2.79,-2.75,-2.74
376.56,-4.91,-2.18,-4.85,-2.13,2.13,1.80,2.15,-2.78,-2.73,-2.72
380.33,-4.67,-1.97,-4.72,-2.02,2.02,1.76,2.17,-2.65,-2.71,-2.70
384.13,-4.53,-1.85,-4.60,-1.91,1.91,1.72,2.19,-2.62,-2.69,-2.68
387.97,-4.35,-1.68,-4.49,-1.82,1.82,1.68,2.21,-2.53,-2.68,-2.67
391.85,-4.29,-1.63,-4.39,-1.72,1.72,1.65,2.23,-2.57,-2.66,-2.66
395.77,-4.28,-1.63,-4.29,-1.63,1.63,1.62,2.25,-2.65,-2.65,-2.65
399.73,-4.22,-1.57,-4.18,-1.54,1.54,1.61,2.27,-2.68,-2.64,-2.64
403.72,-4.09,-1.45,-4.09,-1.45,1.45,1.59,2.30,-2.64,-2.63,-2.64
407.76,-4.05,-1.42,-4.00,-1.37,1.37,1.58,2.32,-2.68,-2.63,-2.63
411.84,-3.92,-1.30,-3.91,-1.29,1.29,1.58,2.34,-2.63,-2.62,-2.62
415.96,-3.83,-1.22,-3.83,-1.21,1.21,1.58,2.37,-2.62,-2.62,-2.61
420.12,-3.82,-1.21,-3.76,-1.15,1.15,1.59,2.39,-2.67,-2.62,-2.61
424.32,-3.80,-1.19,-3.70,-1.09,1.09,1.60,2.42,-2.71,-2.62,-2.61
428.56,-3.65,-1.04,-3.64,-1.03,1.03,1.62,2.44,-2.62,-2.61,-2.61
432.85,-3.59,-0.97,-3.58,-0.97,0.97,1.64,2.46,-2.62,-2.61,-2.62
437.18,-3.49,-0.88,-3.50,-0.90,0.90,1.66,2.48,-2.59,-2.60,-2.61
441.55,-3.40,-0.80,-3.42,-0.83,0.83,1.69,2.51,-2.57,-2.60,-2.60
445.96,-3.37,-0.77,-3.36,-0.76,0.76,1.73,2.52,-2.61,-2.59,-2.60
450.42,-3.37,-0.78,-3.30,-0.71,0.71,1.76,2.54,-2.66,-2.59,-2.59
454.93,-3.37,-0.79,-3.25,-0.67,0.67,1.80,2.55,-2.70,-2.58,-2.58
459.48,-3.37,-0.80,-3.22,-0.66,0.66,1.85,2.57,-2.71,-2.56,-2.57
464.07,-3.37,-0.82,-3.23,-0.68,0.68,1.89,2.58,-2.69,-2.55,-2.55
468.71,-3.37,-0.84,-3.29,-0.76,0.76,1.94,2.58,-2.61,-2.53,-2.53
473.40,-3.37,-0.85,-3.45,-0.93,0.93,1.98,2.58,-2.44,-2.51,-2.52
478.13,-3.37,-0.87,-3.69,-1.20,1.20,2.03,2.58,-2.17,-2.49,-2.49
482.91,-3.57,-1.09,-4.00,-1.53,1.53,2.08,2.58,-2.04,-2.47,-2.48
487.74,-3.82,-1.37,-4.37,-1.93,1.93,2.13,2.57,-1.89,-2.45,-2.45
