frequency,raw,error,smoothed,error_smoothed,equalization,parametric_eq,fixed_band_eq,equalized_raw,equalized_smoothed,target
20.00,15.69,7.34,15.69,7.33,-7.33,-7.40,-4.06,8.36,8.36,8.35
20.20,15.76,7.42,15.76,7.42,-7.42,-7.45,-4.17,8.34,8.34,8.34
20.40,15.83,7.50,15.83,7.50,-7.50,-7.51,-4.28,8.33,8.33,8.33
20.61,15.90,7.57,15.90,7.58,-7.58,-7.57,-4.40,8.31,8.32,8.32
20.81,15.98,7.68,15.97,7.67,-7.67,-7.63,-4.51,8.31,8.31,8.30
21.02,16.05,7.76,16.04,7.75,-7.75,-7.68,-4.64,8.30,8.30,8.29
21.23,16.11,7.83,16.11,7.82,-7.82,-7.74,-4.76,8.28,8.29,8.28
21.44,16.18,7.89,16.18,7.90,-7.90,-7.79,-4.89,8.28,8.28,8.29
21.66,16.25,7.97,16.24,7.98,-7.98,-7.85,-5.02,8.27,8.27,8.27
21.87,16.31,8.04,16.31,8.05,-8.05,-7.90,-5.16,8.26,8.26,8.27
22.09,16.38,8.13,16.37,8.12,-8.12,-7.96,-5.30,8.26,8.25,8.25
22.31,16.44,8.20,16.44,8.19,-8.19,-8.01,-5.44,8.25,8.24,8.24
22.54,16.50,8.26,16.50,8.26,-8.26,-8.07,-5.59,8.24,8.24,8.23
22.76,16.56,8.33,16.56,8.33,-8.33,-8.12,-5.74,8.23,8.23,8.23
22.99,16.62,8.40,16.62,8.39,-8.39,-8.17,-5.89,8.23,8.23,8.22
23.22,16.68,8.47,16.68,8.46,-8.46,-8.22,-6.05,8.22,8.22,8.21
23.45,16.73,8.51,16.74,8.52,-8.52,-8.27,-6.21,8.21,8.22,8.22
23.69,16.79,8.57,16.79,8.58,-8.58,-8.32,-6.38,8.21,8.21,8.21
23.92,16.85,8.65,16.85,8.64,-8.64,-8.37,-6.55,8.21,8.21,8.20
24.16,16.90,8.69,16.90,8.70,-8.70,-8.42,-6.72,8.20,8.20,8.21
24.40,16.96,8.75,16.95,8.75,-8.75,-8.47,-6.89,8.21,8.20,8.21
24.65,17.01,8.81,17.01,8.80,-8.80,-8.52,-7.07,8.20,8.20,8.20
24.89,17.06,8.86,17.06,8.86,-8.86,-8.57,-7.25,8.20,8.20,8.20
25.14,17.11,8.92,17.10,8.91,-8.91,-8.61,-7.44,8.20,8.20,8.19
25.39,17.15,8.96,17.15,8.95,-8.95,-8.66,-7.62,8.19,8.20,8.19
25.65,17.20,9.01,17.20,9.00,-9.00,-8.70,-7.81,8.20,8.19,8.19
25.91,17.24,9.05,17.24,9.05,-9.05,-8.75,-8.00,8.19,8.19,8.19
26.16,17.28,9.08,17.28,9.09,-9.09,-8.79,-8.19,8.19,8.19,8.20
26.43,17.32,9.13,17.32,9.13,-9.13,-8.83,-8.38,8.19,8.19,8.19
26.69,17.36,9.17,17.36,9.16,-9.16,-8.87,-8.57,8.19,8.19,8.19
26.96,17.39,9.20,17.39,9.20,-9.20,-8.91,-8.76,8.19,8.19,8.19
27.23,17.43,9.24,17.43,9.23,-9.23,-8.95,-8.95,8.19,8.20,8.19
27.50,17.46,9.27,17.46,9.27,-9.27,-8.99,-9.13,8.19,8.20,8.19
27.77,17.49,9.29,17.50,9.30,-9.30,-9.03,-9.31,8.19,8.20,8.20
28.05,17.51,9.32,17.52,9.32,-9.32,-9.06,-9.49,8.18,8.20,8.19
28.33,17.54,9.34,17.55,9.35,-9.35,-9.10,-9.66,8.19,8.20,8.20
28.62,17.56,9.36,17.57,9.37,-9.37,-9.13,-9.82,8.19,8.20,8.20
28.90,17.58,9.37,17.58,9.38,-9.38,-9.16,-9.97,8.20,8.20,8.21
29.19,17.60,9.39,17.59,9.39,-9.39,-9.19,-10.11,8.21,8.20,8.21
29.48,17.61,9.41,17.59,9.39,-9.39,-9.22,-10.24,8.22,8.20,8.20
29.78,17.62,9.42,17.58,9.38,-9.38,-9.25,-10.36,8.24,8.20,8.20
30.08,17.62,9.42,17.56,9.37,-9.37,-9.28,-10.47,8.25,8.20,8.20
30.38,17.58,9.40,17.54,9.35,-9.35,-9.31,-10.56,8.23,8.19,8.18
30.68,17.53,9.35,17.51,9.33,-9.33,-9.33,-10.63,8.20,8.19,8.18
30.99,17.49,9.31,17.48,9.30,-9.30,-9.35,-10.69,8.19,8.18,8.18
31.30,17.44,9.26,17.44,9.26,-9.26,-9.38,-10.74,8.18,8.18,8.18
31.61,17.38,9.21,17.39,9.22,-9.22,-9.40,-10.76,8.16,8.17,8.17
31.93,17.32,9.17,17.34,9.18,-9.18,-9.42,-10.77,8.14,8.16,8.15
32.24,17.28,9.12,17.29,9.14,-9.14,-9.43,-10.77,8.14,8.15,8.16
32.57,17.23,9.09,17.25,9.10,-9.10,-9.45,-10.75,8.13,8.15,8.14
32.89,17.18,9.04,17.20,9.05,-9.05,-9.47,-10.71,8.12,8.14,8.14
33.22,17.15,9.02,17.15,9.02,-9.02,-9.48,-10.67,8.13,8.14,8.13
33.55,17.11,8.98,17.11,8.98,-8.98,-9.49,-10.61,8.13,8.13,8.13
33.89,17.07,8.95,17.07,8.95,-8.95,-9.50,-10.54,8.11,8.12,8.12
34.23,17.04,8.94,17.04,8.93,-8.93,-9.51,-10.46,8.11,8.11,8.10
34.57,17.01,8.91,17.01,8.91,-8.91,-9.52,-10.38,8.10,8.10,8.10
34.92,16.99,8.91,16.99,8.90,-8.90,-9.53,-10.28,8.09,8.09,8.08
35.27,16.97,8.87,16.97,8.89,-8.89,-9.53,-10.18,8.08,8.08,8.10
35.62,16.95,8.88,16.95,8.88,-8.88,-9.54,-10.08,8.07,8.07,8.07
35.97,16.93,8.86,16.94,8.88,-8.88,-9.54,-9.98,8.05,8.06,8.07
36.33,16.92,8.87,16.92,8.88,-8.88,-9.54,-9.87,8.04,8.05,8.05
36.70,16.92,8.89,16.91,8.88,-8.88,-9.54,-9.76,8.04,8.03,8.03
37.06,16.91,8.90,16.90,8.89,-8.89,-9.54,-9.65,8.02,8.01,8.01
37.43,16.90,8.91,16.89,8.90,-8.90,-9.53,-9.55,8.00,8.00,7.99
37.81,16.89,8.91,16.89,8.91,-8.91,-9.53,-9.44,7.98,7.98,7.98
38.19,16.88,8.93,16.88,8.92,-8.92,-9.52,-9.34,7.96,7.96,7.95
38.57,16.87,8.94,16.87,8.93,-8.93,-9.51,-9.24,7.93,7.93,7.93
38.95,16.86,8.94,16.86,8.95,-8.95,-9.51,-9.14,7.91,7.91,7.92
39.34,16.86,8.97,16.85,8.96,-8.96,-9.49,-9.05,7.90,7.89,7.89
39.74,16.85,8.99,16.85,8.98,-8.98,-9.48,-8.96,7.87,7.87,7.86
40.14,16.84,9.00,16.84,8.99,-8.99,-9.47,-8.88,7.85,7.85,7.84
40.54,16.83,9.01,16.82,9.00,-9.00,-9.45,-8.80,7.83,7.82,7.82
40.94,16.81,9.02,16.81,9.01,-9.01,-9.44,-8.73,7.80,7.80,7.79
41.35,16.80,9.02,16.80,9.02,-9.02,-9.42,-8.66,7.78,7.78,7.78
41.76,16.78,9.03,16.78,9.03,-9.03,-9.40,-8.60,7.75,7.76,7.75
42.18,16.76,9.02,16.77,9.03,-9.03,-9.38,-8.54,7.72,7.73,7.74
42.60,16.75,9.04,16.75,9.04,-9.04,-9.36,-8.49,7.71,7.71,7.71
43.03,16.74,9.05,16.72,9.04,-9.04,-9.33,-8.44,7.70,7.69,7.69
43.46,16.71,9.06,16.70,9.04,-9.04,-9.31,-8.41,7.67,7.66,7.65
43.90,16.68,9.05,16.67,9.03,-9.03,-9.28,-8.37,7.64,7.63,7.63
44.33,16.64,9.04,16.64,9.03,-9.03,-9.25,-8.34,7.61,7.61,7.60
44.78,16.61,9.03,16.60,9.03,-9.03,-9.23,-8.32,7.58,7.58,7.58
45.23,16.57,9.01,16.57,9.02,-9.02,-9.20,-8.31,7.55,7.55,7.56
45.68,16.53,9.02,16.53,9.02,-9.02,-9.16,-8.30,7.51,7.51,7.51
46.13,16.49,9.01,16.49,9.01,-9.01,-9.13,-8.29,7.48,7.48,7.48
46.60,16.44,9.00,16.44,9.00,-9.00,-9.10,-8.30,7.44,7.44,7.44
47.06,16.39,8.98,16.39,8.99,-8.99,-9.06,-8.30,7.40,7.40,7.41
47.53,16.35,8.98,16.34,8.98,-8.98,-9.03,-8.32,7.37,7.36,7.37
48.01,16.30,8.98,16.29,8.97,-8.97,-8.99,-8.33,7.33,7.32,7.32
48.49,16.25,8.97,16.24,8.96,-8.96,-8.95,-8.36,7.29,7.28,7.28
48.97,16.19,8.96,16.19,8.95,-8.95,-8.92,-8.39,7.24,7.24,7.23
49.46,16.13,8.93,16.14,8.94,-8.94,-8.88,-8.42,7.19,7.20,7.20
49.96,16.08,8.94,16.08,8.92,-8.92,-8.84,-8.46,7.16,7.16,7.14
50.46,16.02,8.91,16.02,8.91,-8.91,-8.79,-8.50,7.11,7.11,7.11
50.96,15.96,8.89,15.97,8.89,-8.89,-8.75,-8.54,7.07,7.07,7.07
51.47,15.91,8.88,15.91,8.88,-8.88,-8.71,-8.59,7.03,7.03,7.03
51.99,15.85,8.87,15.85,8.86,-8.86,-8.66,-8.64,6.99,6.99,6.98
52.51,15.79,8.84,15.79,8.84,-8.84,-8.62,-8.69,6.95,6.95,6.95
53.03,15.73,8.81,15.72,8.82,-8.82,-8.57,-8.74,6.91,6.91,6.92
53.56,15.67,8.80,15.66,8.80,-8.80,-8.53,-8.80,6.87,6.87,6.87
54.10,15.61,8.79,15.60,8.77,-8.77,-8.48,-8.85,6.83,6.83,6.82
54.64,15.54,8.76,15.54,8.75,-8.75,-8.43,-8.90,6.79,6.79,6.78
55.18,15.47,8.73,15.47,8.72,-8.72,-8.38,-8.96,6.74,6.75,6.74
55.74,15.40,8.71,15.41,8.70,-8.70,-8.33,-9.01,6.70,6.71,6.69
56.29,15.34,8.67,15.34,8.67,-8.67,-8.28,-9.05,6.67,6.67,6.67
56.86,15.28,8.65,15.28,8.65,-8.65,-8.23,-9.09,6.63,6.63,6.63
57.42,15.21,8.63,15.21,8.62,-8.62,-8.18,-9.13,6.59,6.59,6.58
58.00,15.14,8.60,15.14,8.60,-8.60,-8.13,-9.16,6.54,6.55,6.54
58.58,15.08,8.57,15.08,8.57,-8.57,-8.07,-9.19,6.51,6.50,6.51
59.16,15.01,8.53,15.01,8.55,-8.55,-8.02,-9.21,6.46,6.46,6.48
59.76,14.94,8.51,14.94,8.53,-8.53,-7.97,-9.21,6.41,6.41,6.43
60.35,14.87,8.49,14.87,8.50,-8.50,-7.91,-9.21,6.37,6.36,6.38
60.96,14.80,8.48,14.79,8.48,-8.48,-7.86,-9.21,6.32,6.31,6.32
61.57,14.72,8.46,14.72,8.46,-8.46,-7.80,-9.19,6.26,6.26,6.26
62.18,14.65,8.45,14.65,8.43,-8.43,-7.75,-9.16,6.21,6.21,6.20
62.80,14.57,8.43,14.57,8.41,-8.41,-7.69,-9.12,6.16,6.16,6.14
63.43,14.49,8.40,14.49,8.39,-8.39,-7.63,-9.06,6.10,6.10,6.09
64.07,14.41,8.37,14.41,8.36,-8.36,-7.58,-9.00,6.05,6.05,6.04
64.71,14.33,8.34,14.33,8.33,-8.33,-7.52,-8.93,6.00,5.99,5.99
65.35,14.24,8.31,14.24,8.30,-8.30,-7.46,-8.85,5.94,5.94,5.93
66.01,14.15,8.27,14.15,8.27,-8.27,-7.40,-8.76,5.88,5.88,5.88
66.67,14.06,8.22,14.06,8.23,-8.23,-7.34,-8.66,5.83,5.83,5.84
67.33,13.97,8.20,13.97,8.19,-8.19,-7.29,-8.55,5.78,5.77,5.77
68.01,13.88,8.16,13.87,8.15,-8.15,-7.23,-8.44,5.73,5.72,5.72
68.69,13.78,8.11,13.77,8.11,-8.11,-7.17,-8.32,5.67,5.67,5.67
69.37,13.67,8.05,13.67,8.06,-8.06,-7.11,-8.19,5.61,5.61,5.62
70.07,13.56,8.00,13.56,8.01,-8.01,-7.05,-8.06,5.55,5.55,5.56
70.77,13.45,7.96,13.45,7.95,-7.95,-6.99,-7.93,5.49,5.49,5.49
71.48,13.34,7.90,13.33,7.90,-7.90,-6.93,-7.79,5.44,5.44,5.44
72.19,13.23,7.85,13.22,7.84,-7.84,-6.87,-7.65,5.39,5.38,5.38
72.91,13.10,7.79,13.10,7.77,-7.77,-6.81,-7.51,5.32,5.32,5.31
73.64,12.98,7.72,12.97,7.71,-7.71,-6.74,-7.36,5.27,5.27,5.26
74.38,12.85,7.65,12.85,7.64,-7.64,-6.68,-7.22,5.21,5.21,5.20
75.12,12.72,7.57,12.72,7.56,-7.56,-6.62,-7.08,5.16,5.16,5.15
75.87,12.58,7.48,12.59,7.48,-7.48,-6.56,-6.94,5.09,5.10,5.10
76.63,12.45,7.41,12.45,7.40,-7.40,-6.50,-6.80,5.04,5.05,5.04
77.40,12.31,7.31,12.32,7.32,-7.32,-6.44,-6.66,4.99,5.00,5.00
78.17,12.17,7.23,12.18,7.23,-7.23,-6.37,-6.52,4.93,4.95,4.94
78.95,12.04,7.14,12.04,7.14,-7.14,-6.31,-6.38,4.90,4.90,4.90
79.74,11.90,7.05,11.89,7.05,-7.05,-6.25,-6.25,4.85,4.85,4.85
80.54,11.75,6.95,11.75,6.95,-6.95,-6.18,-6.12,4.80,4.80,4.80
81.35,11.61,6.87,11.60,6.85,-6.85,-6.12,-6.00,4.76,4.75,4.74
82.16,11.46,6.75,11.44,6.74,-6.74,-6.06,-5.87,4.71,4.70,4.71
82.98,11.31,6.66,11.29,6.64,-6.64,-5.99,-5.75,4.67,4.65,4.65
83.81,11.14,6.54,11.13,6.53,-6.53,-5.93,-5.64,4.60,4.59,4.60
84.65,10.96,6.42,10.96,6.42,-6.42,-5.86,-5.52,4.53,4.54,4.54
85.50,10.79,6.31,10.80,6.31,-6.31,-5.79,-5.41,4.48,4.49,4.48
86.35,10.62,6.19,10.63,6.20,-6.20,-5.73,-5.31,4.42,4.43,4.43
87.22,10.45,6.07,10.46,6.08,-6.08,-5.66,-5.21,4.37,4.38,4.38
88.09,10.28,5.96,10.29,5.96,-5.96,-5.59,-5.11,4.31,4.32,4.32
88.97,10.11,5.85,10.11,5.84,-5.84,-5.52,-5.01,4.26,4.27,4.26
89.86,9.93,5.72,9.93,5.72,-5.72,-5.45,-4.92,4.21,4.21,4.21
90.76,9.75,5.60,9.75,5.60,-5.60,-5.38,-4.83,4.15,4.15,4.15
91.66,9.56,5.48,9.56,5.47,-5.47,-5.30,-4.75,4.09,4.09,4.08
92.58,9.37,5.34,9.36,5.33,-5.33,-5.23,-4.67,4.03,4.03,4.03
93.51,9.19,5.21,9.16,5.19,-5.19,-5.15,-4.59,3.99,3.97,3.98
94.44,9.01,5.09,8.96,5.05,-5.05,-5.07,-4.52,3.95,3.91,3.92
95.39,8.80,4.95,8.76,4.91,-4.91,-4.99,-4.45,3.88,3.85,3.85
96.34,8.58,4.80,8.56,4.77,-4.77,-4.90,-4.38,3.80,3.78,3.78
97.30,8.36,4.64,8.35,4.63,-4.63,-4.81,-4.32,3.73,3.72,3.72
98.28,8.14,4.49,8.15,4.49,-4.49,-4.72,-4.26,3.65,3.66,3.65
99.26,7.91,4.32,7.94,4.34,-4.34,-4.62,-4.20,3.57,3.60,3.59
100.25,7.69,4.16,7.73,4.19,-4.19,-4.52,-4.14,3.50,3.54,3.53
101.25,7.46,3.98,7.52,4.04,-4.04,-4.41,-4.09,3.41,3.48,3.48
102.27,7.27,3.85,7.32,3.89,-3.89,-4.29,-4.04,3.38,3.42,3.42
103.29,7.15,3.79,7.11,3.74,-3.74,-4.16,-3.99,3.41,3.37,3.36
104.32,6.99,3.68,6.90,3.59,-3.59,-4.02,-3.95,3.40,3.31,3.31
105.37,6.75,3.50,6.69,3.44,-3.44,-3.88,-3.91,3.31,3.25,3.25
106.42,6.54,3.34,6.50,3.30,-3.30,-3.72,-3.87,3.24,3.20,3.20
107.48,6.32,3.18,6.31,3.17,-3.17,-3.55,-3.83,3.15,3.14,3.14
108.56,6.12,3.03,6.12,3.04,-3.04,-3.37,-3.79,3.08,3.08,3.09
109.64,5.93,2.90,5.94,2.92,-2.92,-3.18,-3.76,3.01,3.03,3.03
110.74,5.74,2.77,5.77,2.80,-2.80,-2.99,-3.72,2.94,2.97,2.97
111.85,5.57,2.66,5.60,2.69,-2.69,-2.80,-3.69,2.88,2.91,2.91
112.97,5.41,2.55,5.44,2.59,-2.59,-2.62,-3.66,2.81,2.85,2.86
114.10,5.27,2.47,5.29,2.50,-2.50,-2.46,-3.63,2.77,2.79,2.80
115.24,5.13,2.41,5.16,2.42,-2.42,-2.34,-3.60,2.71,2.73,2.72
116.39,5.06,2.40,5.03,2.36,-2.36,-2.26,-3.57,2.70,2.68,2.66
117.55,4.96,2.36,4.93,2.31,-2.31,-2.22,-3.55,2.64,2.62,2.60
118.73,4.84,2.30,4.84,2.28,-2.28,-2.23,-3.52,2.56,2.56,2.54
119.92,4.74,2.24,4.76,2.26,-2.26,-2.29,-3.49,2.48,2.50,2.50
121.12,4.67,2.22,4.70,2.25,-2.25,-2.37,-3.47,2.42,2.45,2.45
122.33,4.64,2.25,4.65,2.25,-2.25,-2.46,-3.44,2.38,2.39,2.39
123.55,4.61,2.27,4.61,2.27,-2.27,-2.57,-3.42,2.34,2.33,2.34
124.79,4.58,2.29,4.58,2.30,-2.30,-2.67,-3.39,2.28,2.28,2.29
126.03,4.55,2.32,4.56,2.33,-2.33,-2.77,-3.37,2.22,2.22,2.23
127.29,4.54,2.36,4.54,2.37,-2.37,-2.85,-3.34,2.16,2.17,2.18
128.57,4.54,2.43,4.54,2.42,-2.42,-2.93,-3.32,2.11,2.12,2.11
129.85,4.55,2.49,4.54,2.48,-2.48,-3.00,-3.30,2.07,2.06,2.06
131.15,4.57,2.57,4.56,2.55,-2.55,-3.05,-3.27,2.02,2.01,2.00
132.46,4.59,2.64,4.58,2.63,-2.63,-3.10,-3.25,1.96,1.95,1.95
133.79,4.62,2.73,4.61,2.71,-2.71,-3.14,-3.23,1.91,1.90,1.89
135.12,4.65,2.81,4.64,2.79,-2.79,-3.16,-3.20,1.85,1.84,1.84
136.48,4.67,2.88,4.67,2.88,-2.88,-3.19,-3.18,1.79,1.79,1.79
137.84,4.71,2.97,4.71,2.97,-2.97,-3.20,-3.16,1.74,1.74,1.74
139.22,4.73,3.05,4.75,3.07,-3.07,-3.22,-3.14,1.66,1.69,1.68
140.61,4.78,3.14,4.80,3.16,-3.16,-3.22,-3.12,1.62,1.64,1.64
142.02,4.85,3.27,4.85,3.25,-3.25,-3.23,-3.10,1.59,1.59,1.58
143.44,4.89,3.35,4.89,3.35,-3.35,-3.23,-3.08,1.54,1.55,1.54
144.87,4.95,3.45,4.94,3.44,-3.44,-3.23,-3.06,1.51,1.50,1.50
146.32,4.99,3.54,4.98,3.53,-3.53,-3.22,-3.05,1.46,1.45,1.45
147.78,5.05,3.64,5.03,3.62,-3.62,-3.22,-3.03,1.43,1.41,1.41
149.26,5.09,3.73,5.07,3.70,-3.70,-3.21,-3.02,1.38,1.37,1.36
150.75,5.13,3.81,5.11,3.79,-3.79,-3.20,-3.01,1.34,1.32,1.32
152.26,5.15,3.87,5.15,3.87,-3.87,-3.19,-3.00,1.28,1.28,1.28
153.78,5.18,3.94,5.18,3.94,-3.94,-3.19,-2.99,1.24,1.24,1.24
155.32,5.20,4.00,5.21,4.01,-4.01,-3.18,-2.98,1.19,1.19,1.20
156.88,5.23,4.08,5.23,4.08,-4.08,-3.16,-2.98,1.15,1.15,1.15
158.44,5.24,4.14,5.24,4.14,-4.14,-3.15,-2.97,1.10,1.11,1.10
160.03,5.26,4.20,5.26,4.20,-4.20,-3.14,-2.97,1.06,1.06,1.06
161.63,5.28,4.26,5.26,4.25,-4.25,-3.13,-2.97,1.03,1.02,1.02
163.24,5.28,4.31,5.27,4.30,-4.30,-3.12,-2.97,0.98,0.97,0.97
164.88,5.26,4.34,5.27,4.34,-4.34,-3.11,-2.98,0.91,0.92,0.92
166.53,5.25,4.38,5.26,4.38,-4.38,-3.10,-2.99,0.86,0.88,0.87
168.19,5.24,4.40,5.25,4.42,-4.42,-3.09,-3.00,0.82,0.83,0.84
169.87,5.23,4.45,5.24,4.45,-4.45,-3.08,-3.01,0.78,0.78,0.78
171.57,5.21,4.48,5.21,4.48,-4.48,-3.08,-3.02,0.73,0.74,0.73
173.29,5.19,4.50,5.18,4.49,-4.49,-3.07,-3.03,0.70,0.69,0.69
175.02,5.15,4.51,5.14,4.50,-4.50,-3.06,-3.05,0.65,0.64,0.64
176.77,5.11,4.52,5.09,4.50,-4.50,-3.05,-3.07,0.61,0.60,0.59
178.54,5.06,4.51,5.04,4.49,-4.49,-3.05,-3.09,0.57,0.55,0.55
180.32,5.01,4.52,4.98,4.48,-4.48,-3.04,-3.12,0.53,0.50,0.49
182.13,4.94,4.48,4.91,4.45,-4.45,-3.04,-3.15,0.48,0.46,0.46
183.95,4.83,4.42,4.84,4.43,-4.43,-3.04,-3.17,0.40,0.41,0.41
185.79,4.75,4.39,4.75,4.39,-4.39,-3.03,-3.20,0.36,0.36,0.36
187.65,4.66,4.34,4.67,4.35,-4.35,-3.03,-3.24,0.31,0.32,0.32
189.52,4.56,4.28,4.57,4.29,-4.29,-3.03,-3.27,0.27,0.28,0.28
191.42,4.46,4.22,4.47,4.23,-4.23,-3.03,-3.31,0.22,0.24,0.24
193.33,4.36,4.16,4.36,4.17,-4.17,-3.03,-3.35,0.19,0.19,0.20
195.27,4.26,4.11,4.25,4.10,-4.10,-3.03,-3.39,0.16,0.15,0.15
197.22,4.15,4.05,4.14,4.02,-4.02,-3.04,-3.43,0.13,0.12,0.10
199.19,4.04,3.97,4.02,3.94,-3.94,-3.04,-3.47,0.10,0.08,0.07
201.18,3.92,3.89,3.90,3.86,-3.86,-3.05,-3.52,0.06,0.04,0.03
203.19,3.80,3.80,3.79,3.78,-3.78,-3.05,-3.56,0.02,0.01,0.00
205.23,3.68,3.70,3.67,3.70,-3.70,-3.06,-3.61,-0.02,-0.03,-0.02
207.28,3.56,3.61,3.56,3.61,-3.61,-3.07,-3.66,-0.06,-0.06,-0.05
209.35,3.43,3.52,3.44,3.53,-3.53,-3.08,-3.70,-0.10,-0.09,-0.09
211.44,3.31,3.43,3.33,3.45,-3.45,-3.09,-3.75,-0.14,-0.12,-0.12
213.56,3.20,3.34,3.21,3.36,-3.36,-3.11,-3.80,-0.16,-0.15,-0.14
215.69,3.10,3.27,3.10,3.28,-3.28,-3.12,-3.85,-0.18,-0.17,-0.17
217.85,3.00,3.20,3.00,3.20,-3.20,-3.13,-3.89,-0.20,-0.20,-0.20
220.03,2.92,3.15,2.90,3.12,-3.12,-3.15,-3.94,-0.20,-0.22,-0.23
222.23,2.83,3.09,2.81,3.05,-3.05,-3.17,-3.98,-0.23,-0.25,-0.26
224.45,2.74,3.01,2.72,2.99,-2.99,-3.19,-4.02,-0.25,-0.27,-0.27
226.70,2.65,2.95,2.64,2.94,-2.94,-3.21,-4.06,-0.29,-0.29,-0.30
228.96,2.56,2.87,2.57,2.89,-2.89,-3.23,-4.10,-0.33,-0.31,-0.31
231.25,2.51,2.84,2.52,2.85,-2.85,-3.25,-4.14,-0.34,-0.33,-0.33
233.57,2.45,2.80,2.47,2.81,-2.81,-3.28,-4.17,-0.36,-0.35,-0.35
235.90,2.40,2.76,2.42,2.79,-2.79,-3.30,-4.20,-0.39,-0.36,-0.36
238.26,2.38,2.77,2.39,2.77,-2.77,-3.33,-4.22,-0.39,-0.37,-0.39
240.64,2.37,2.75,2.38,2.76,-2.76,-3.36,-4.25,-0.39,-0.39,-0.38
243.05,2.37,2.77,2.37,2.76,-2.76,-3.39,-4.26,-0.40,-0.39,-0.40
245.48,2.38,2.79,2.37,2.78,-2.78,-3.42,-4.28,-0.40,-0.40,-0.41
247.93,2.40,2.82,2.39,2.80,-2.80,-3.45,-4.29,-0.41,-0.41,-0.42
250.41,2.42,2.83,2.43,2.84,-2.84,-3.49,-4.29,-0.42,-0.42,-0.41
252.92,2.46,2.88,2.47,2.89,-2.89,-3.52,-4.29,-0.43,-0.42,-0.42
255.45,2.51,2.94,2.53,2.95,-2.95,-3.56,-4.29,-0.44,-0.43,-0.43
258.00,2.56,2.99,2.59,3.02,-3.02,-3.60,-4.28,-0.46,-0.43,-0.43
260.58,2.65,3.08,2.66,3.09,-3.09,-3.63,-4.27,-0.45,-0.43,-0.43
263.19,2.74,3.17,2.74,3.18,-3.18,-3.67,-4.25,-0.44,-0.44,-0.43
265.82,2.84,3.28,2.82,3.26,-3.26,-3.72,-4.23,-0.42,-0.44,-0.44
268.48,2.92,3.36,2.91,3.36,-3.36,-3.76,-4.21,-0.44,-0.44,-0.44
271.16,3.01,3.45,3.01,3.45,-3.45,-3.80,-4.19,-0.44,-0.44,-0.44
273.87,3.13,3.57,3.11,3.55,-3.55,-3.84,-4.16,-0.42,-0.44,-0.44
276.61,3.23,3.67,3.21,3.65,-3.65,-3.89,-4.13,-0.42,-0.45,-0.44
279.38,3.31,3.77,3.30,3.75,-3.75,-3.93,-4.09,-0.44,-0.45,-0.46
282.17,3.40,3.86,3.40,3.85,-3.85,-3.98,-4.06,-0.45,-0.45,-0.46
284.99,3.48,3.93,3.50,3.94,-3.94,-4.03,-4.02,-0.46,-0.44,-0.45
287.84,3.60,4.04,3.59,4.03,-4.03,-4.07,-3.99,-0.43,-0.44,-0.44
290.72,3.68,4.13,3.68,4.11,-4.11,-4.12,-3.95,-0.44,-0.44,-0.45
293.63,3.77,4.21,3.76,4.19,-4.19,-4.17,-3.91,-0.43,-0.44,-0.44
296.57,3.85,4.28,3.83,4.27,-4.27,-4.22,-3.87,-0.42,-0.43,-0.43
299.53,3.92,4.35,3.90,4.33,-4.33,-4.26,-3.83,-0.41,-0.43,-0.43
302.53,3.98,4.39,3.97,4.39,-4.39,-4.31,-3.80,-0.41,-0.42,-0.41
305.55,4.03,4.45,4.03,4.44,-4.44,-4.36,-3.76,-0.41,-0.42,-0.42
308.61,4.09,4.50,4.08,4.49,-4.49,-4.40,-3.72,-0.40,-0.41,-0.41
311.69,4.14,4.54,4.13,4.53,-4.53,-4.45,-3.69,-0.39,-0.40,-0.40
314.81,4.16,4.56,4.16,4.56,-4.56,-4.49,-3.66,-0.40,-0.39,-0.40
317.96,4.20,4.59,4.20,4.58,-4.58,-4.53,-3.63,-0.38,-0.39,-0.39
321.14,4.22,4.60,4.22,4.60,-4.60,-4.57,-3.60,-0.38,-0.38,-0.38
324.35,4.25,4.63,4.24,4.61,-4.61,-4.61,-3.57,-0.36,-0.37,-0.38
327.59,4.26,4.61,4.25,4.62,-4.62,-4.65,-3.55,-0.36,-0.36,-0.35
330.87,4.27,4.63,4.26,4.62,-4.62,-4.68,-3.52,-0.35,-0.36,-0.36
334.18,4.28,4.63,4.27,4.62,-4.62,-4.72,-3.50,-0.34,-0.35,-0.35
337.52,4.29,4.64,4.27,4.62,-4.62,-4.75,-3.49,-0.33,-0.34,-0.35
340.90,4.28,4.61,4.28,4.61,-4.61,-4.77,-3.47,-0.33,-0.33,-0.33
344.30,4.27,4.59,4.27,4.60,-4.60,-4.80,-3.46,-0.33,-0.32,-0.32
347.75,4.26,4.58,4.27,4.59,-4.59,-4.82,-3.45,-0.33,-0.32,-0.32
351.23,4.26,4.58,4.27,4.58,-4.58,-4.83,-3.44,-0.32,-0.31,-0.32
354.74,4.26,4.55,4.27,4.57,-4.57,-4.85,-3.44,-0.31,-0.30,-0.29
358.28,4.26,4.56,4.26,4.56,-4.56,-4.86,-3.44,-0.30,-0.29,-0.30
361.87,4.26,4.55,4.26,4.55,-4.55,-4.86,-3.44,-0.29,-0.29,-0.29
365.49,4.26,4.54,4.26,4.54,-4.54,-4.86,-3.44,-0.28,-0.28,-0.28
369.14,4.26,4.52,4.26,4.53,-4.53,-4.86,-3.45,-0.28,-0.27,-0.26
372.83,4.26,4.52,4.27,4.53,-4.53,-4.85,-3.46,-0.27,-0.26,-0.26
376.56,4.26,4.52,4.27,4.52,-4.52,-4.84,-3.47,-0.26,-0.25,-0.26
380.33,4.26,4.51,4.27,4.51,-4.51,-4.83,-3.48,-0.26,-0.24,-0.25
384.13,4.27,4.50,4.27,4.51,-4.51,-4.81,-3.50,-0.24,-0.23,-0.23
387.97,4.28,4.51,4.27,4.50,-4.50,-4.78,-3.51,-0.22,-0.22,-0.23
391.85,4.29,4.51,4.27,4.49,-4.49,-4.75,-3.53,-0.20,-0.21,-0.22
395.77,4.28,4.49,4.27,4.47,-4.47,-4.72,-3.55,-0.20,-0.20,-0.21
399.73,4.27,4.47,4.26,4.46,-4.46,-4.69,-3.58,-0.19,-0.19,-0.20
403.72,4.26,4.43,4.25,4.43,-4.43,-4.65,-3.60,-0.18,-0.18,-0.17
407.76,4.24,4.42,4.23,4.41,-4.41,-4.60,-3.63,-0.17,-0.17,-0.18
411.84,4.22,4.39,4.21,4.38,-4.38,-4.55,-3.65,-0.16,-0.17,-0.17
415.96,4.20,4.35,4.19,4.34,-4.34,-4.50,-3.68,-0.14,-0.16,-0.15
420.12,4.17,4.32,4.16,4.30,-4.30,-4.45,-3.71,-0.13,-0.15,-0.15
424.32,4.14,4.28,4.12,4.26,-4.26,-4.39,-3.74,-0.12,-0.14,-0.14
428.56,4.10,4.22,4.08,4.21,-4.21,-4.33,-3.76,-0.11,-0.13,-0.12
432.85,4.05,4.16,4.04,4.16,-4.16,-4.27,-3.79,-0.11,-0.12,-0.11
437.18,3.99,4.11,4.00,4.11,-4.11,-4.21,-3.82,-0.12,-0.11,-0.12
441.55,3.94,4.05,3.96,4.06,-4.06,-4.14,-3.84,-0.12,-0.10,-0.11
445.96,3.89,3.99,3.91,4.00,-4.00,-4.07,-3.86,-0.12,-0.09,-0.10
450.42,3.85,3.94,3.87,3.95,-3.95,-4.00,-3.88,-0.10,-0.08,-0.09
454.93,3.81,3.89,3.82,3.90,-3.90,-3.93,-3.90,-0.09,-0.07,-0.08
459.48,3.77,3.84,3.77,3.84,-3.84,-3.86,-3.92,-0.07,-0.07,-0.07
464.07,3.72,3.77,3.73,3.79,-3.79,-3.78,-3.93,-0.07,-0.06,-0.05
468.71,3.69,3.73,3.68,3.73,-3.73,-3.71,-3.94,-0.04,-0.05,-0.04
473.40,3.65,3.69,3.64,3.68,-3.68,-3.63,-3.94,-0.03,-0.04,-0.04
478.13,3.61,3.64,3.59,3.62,-3.62,-3.55,-3.94,-0.01,-0.03,-0.03
482.91,3.56,3.58,3.55,3.56,-3.56,-3.48,-3.93,-0.01,-0.02,-0.02
487.74,3.51,3.52,3.50,3.50,-3.50,-3.40,-3.92,0.01,-0.00,-0.01
492.62,3.45,3.45,3.45,3.44,-3.44,-3.32,-3.91,0.01,0.01,0.00
497.55,3.39,3.38,3.40,3.38,-3.38,-3.25,-3.89,0.01,0.02,0.01
