frequency,raw,error,smoothed,error_smoothed,equalization,parametric_eq,fixed_band_eq,equalized_raw,equalized_smoothed,target
20.00,4.56,-2.38,4.55,-2.41,2.41,2.00,-0.09,6.97,6.96,6.94
20.20,4.61,-2.33,4.60,-2.35,2.35,1.95,-0.09,6.97,6.95,6.94
20.40,4.64,-2.29,4.65,-2.29,2.29,1.90,-0.09,6.94,6.95,6.94
20.61,4.69,-2.25,4.70,-2.23,2.23,1.84,-0.10,6.93,6.94,6.94
20.81,4.75,-2.18,4.75,-2.17,2.17,1.78,-0.10,6.93,6.93,6.94
21.02,4.79,-2.14,4.80,-2.11,2.11,1.71,-0.10,6.91,6.91,6.94
21.23,4.85,-2.06,4.85,-2.05,2.05,1.64,-0.11,6.90,6.90,6.92
21.44,4.90,-2.00,4.91,-1.98,1.98,1.57,-0.11,6.89,6.89,6.91
21.66,4.95,-1.93,4.96,-1.91,1.91,1.49,-0.11,6.87,6.87,6.89
21.87,5.00,-1.86,5.01,-1.84,1.84,1.41,-0.12,6.85,6.86,6.87
22.09,5.06,-1.79,5.07,-1.77,1.77,1.33,-0.12,6.84,6.84,6.85
22.31,5.12,-1.70,5.12,-1.70,1.70,1.25,-0.12,6.83,6.83,6.82
22.54,5.17,-1.63,5.18,-1.62,1.62,1.17,-0.13,6.80,6.80,6.80
22.76,5.24,-1.54,5.24,-1.54,1.54,1.08,-0.13,6.79,6.78,6.78
22.99,5.30,-1.45,5.30,-1.46,1.46,1.00,-0.14,6.77,6.76,6.75
23.22,5.35,-1.37,5.35,-1.38,1.38,0.92,-0.14,6.74,6.74,6.72
23.45,5.41,-1.29,5.41,-1.30,1.30,0.83,-0.14,6.72,6.71,6.70
23.69,5.47,-1.22,5.47,-1.22,1.22,0.75,-0.15,6.69,6.69,6.69
23.92,5.53,-1.13,5.53,-1.14,1.14,0.67,-0.15,6.68,6.67,6.67
24.16,5.59,-1.06,5.59,-1.06,1.06,0.58,-0.16,6.66,6.65,6.66
24.40,5.64,-0.99,5.65,-0.98,0.98,0.50,-0.16,6.63,6.63,6.64
24.65,5.70,-0.91,5.71,-0.90,0.90,0.42,-0.17,6.61,6.61,6.62
24.89,5.76,-0.83,5.77,-0.83,0.83,0.35,-0.17,6.59,6.60,6.60
25.14,5.82,-0.76,5.83,-0.75,0.75,0.27,-0.18,6.58,6.58,6.58
25.39,5.88,-0.68,5.88,-0.68,0.68,0.19,-0.18,6.56,6.56,6.56
25.65,5.94,-0.61,5.94,-0.60,0.60,0.12,-0.19,6.55,6.55,6.55
25.91,6.00,-0.52,6.00,-0.53,0.53,0.05,-0.20,6.53,6.53,6.52
26.16,6.06,-0.44,6.06,-0.45,0.45,-0.02,-0.20,6.52,6.51,6.51
26.43,6.12,-0.38,6.12,-0.38,0.38,-0.09,-0.21,6.50,6.50,6.50
26.69,6.18,-0.29,6.18,-0.30,0.30,-0.16,-0.22,6.49,6.48,6.48
26.96,6.24,-0.22,6.24,-0.23,0.23,-0.22,-0.22,6.47,6.47,6.47
27.23,6.29,-0.16,6.30,-0.15,0.15,-0.29,-0.23,6.45,6.45,6.45
27.50,6.34,-0.10,6.35,-0.08,0.08,-0.35,-0.24,6.43,6.44,6.44
27.77,6.40,-0.02,6.41,-0.01,0.01,-0.41,-0.24,6.42,6.42,6.42
28.05,6.47,0.06,6.47,0.06,-0.06,-0.47,-0.25,6.41,6.41,6.41
28.33,6.52,0.14,6.53,0.13,-0.13,-0.52,-0.26,6.39,6.39,6.39
28.62,6.58,0.21,6.58,0.20,-0.20,-0.58,-0.27,6.38,6.38,6.38
28.90,6.63,0.27,6.64,0.27,-0.27,-0.63,-0.28,6.36,6.37,6.37
29.19,6.68,0.34,6.69,0.34,-0.34,-0.68,-0.29,6.35,6.35,6.34
29.48,6.74,0.40,6.74,0.41,-0.41,-0.73,-0.30,6.34,6.34,6.34
29.78,6.80,0.47,6.80,0.47,-0.47,-0.78,-0.31,6.33,6.33,6.33
30.08,6.85,0.54,6.85,0.54,-0.54,-0.83,-0.32,6.32,6.31,6.32
30.38,6.89,0.60,6.90,0.60,-0.60,-0.88,-0.33,6.29,6.29,6.30
30.68,6.94,0.66,6.94,0.66,-0.66,-0.92,-0.34,6.28,6.28,6.28
30.99,6.99,0.73,6.99,0.72,-0.72,-0.97,-0.35,6.27,6.26,6.26
31.30,7.03,0.78,7.03,0.78,-0.78,-1.01,-0.36,6.25,6.25,6.25
31.61,7.07,0.84,7.07,0.84,-0.84,-1.05,-0.38,6.24,6.23,6.24
31.93,7.10,0.89,7.10,0.90,-0.90,-1.09,-0.39,6.21,6.21,6.21
32.24,7.13,0.95,7.14,0.95,-0.95,-1.13,-0.40,6.18,6.19,6.18
32.57,7.17,1.01,7.17,1.00,-1.00,-1.16,-0.42,6.17,6.17,6.17
32.89,7.20,1.05,7.21,1.06,-1.06,-1.20,-0.43,6.15,6.15,6.15
33.22,7.23,1.11,7.23,1.11,-1.11,-1.23,-0.45,6.13,6.13,6.12
33.55,7.26,1.16,7.26,1.16,-1.16,-1.27,-0.46,6.11,6.11,6.11
33.89,7.28,1.20,7.29,1.21,-1.21,-1.30,-0.48,6.08,6.08,6.09
34.23,7.31,1.25,7.32,1.25,-1.25,-1.33,-0.49,6.06,6.06,6.06
34.57,7.34,1.31,7.34,1.30,-1.30,-1.36,-0.51,6.05,6.04,6.04
34.92,7.36,1.35,7.36,1.34,-1.34,-1.39,-0.52,6.02,6.02,6.02
35.27,7.38,1.38,7.38,1.39,-1.39,-1.42,-0.54,6.00,6.00,6.00
35.62,7.40,1.43,7.40,1.43,-1.43,-1.45,-0.56,5.98,5.98,5.98
35.97,7.42,1.47,7.42,1.47,-1.47,-1.48,-0.58,5.96,5.96,5.95
36.33,7.44,1.51,7.44,1.51,-1.51,-1.50,-0.60,5.94,5.93,5.94
36.70,7.45,1.54,7.46,1.54,-1.54,-1.53,-0.62,5.91,5.91,5.91
37.06,7.47,1.58,7.47,1.58,-1.58,-1.55,-0.64,5.89,5.89,5.89
37.43,7.48,1.61,7.48,1.62,-1.62,-1.58,-0.66,5.87,5.87,5.87
37.81,7.49,1.64,7.50,1.65,-1.65,-1.60,-0.68,5.84,5.85,5.85
38.19,7.51,1.69,7.51,1.68,-1.68,-1.62,-0.70,5.83,5.83,5.83
38.57,7.51,1.70,7.52,1.71,-1.71,-1.65,-0.72,5.80,5.81,5.81
38.95,7.52,1.74,7.52,1.74,-1.74,-1.67,-0.75,5.78,5.78,5.78
39.34,7.53,1.78,7.53,1.77,-1.77,-1.69,-0.77,5.77,5.76,5.76
39.74,7.53,1.80,7.53,1.79,-1.79,-1.71,-0.79,5.74,5.74,5.73
40.14,7.53,1.81,7.54,1.81,-1.81,-1.73,-0.82,5.72,5.72,5.73
40.54,7.53,1.83,7.54,1.83,-1.83,-1.75,-0.84,5.70,5.70,5.70
40.94,7.54,1.86,7.54,1.86,-1.86,-1.76,-0.87,5.69,5.68,5.68
41.35,7.53,1.88,7.54,1.87,-1.87,-1.78,-0.90,5.66,5.66,5.66
41.76,7.54,1.90,7.54,1.89,-1.89,-1.80,-0.93,5.65,5.64,5.65
42.18,7.53,1.90,7.53,1.91,-1.91,-1.82,-0.96,5.62,5.62,5.63
42.60,7.52,1.92,7.53,1.93,-1.93,-1.83,-0.99,5.60,5.60,5.60
43.03,7.52,1.93,7.52,1.94,-1.94,-1.85,-1.02,5.58,5.58,5.60
43.46,7.51,1.95,7.52,1.96,-1.96,-1.86,-1.05,5.56,5.56,5.57
43.90,7.51,1.98,7.51,1.97,-1.97,-1.88,-1.08,5.54,5.54,5.54
44.33,7.50,1.98,7.50,1.98,-1.98,-1.89,-1.11,5.52,5.52,5.52
44.78,7.49,1.99,7.50,1.99,-1.99,-1.90,-1.15,5.50,5.50,5.50
45.23,7.48,2.01,7.48,2.00,-2.00,-1.92,-1.18,5.48,5.48,5.47
45.68,7.47,2.02,7.47,2.01,-2.01,-1.93,-1.22,5.46,5.46,5.45
46.13,7.46,2.03,7.46,2.02,-2.02,-1.94,-1.25,5.44,5.44,5.43
46.60,7.45,2.04,7.45,2.03,-2.03,-1.95,-1.29,5.42,5.41,5.42
47.06,7.43,2.04,7.43,2.04,-2.04,-1.97,-1.33,5.39,5.39,5.40
47.53,7.42,2.05,7.42,2.05,-2.05,-1.98,-1.37,5.37,5.37,5.38
48.01,7.40,2.04,7.40,2.06,-2.06,-1.99,-1.41,5.35,5.34,5.36
48.49,7.38,2.05,7.38,2.06,-2.06,-2.00,-1.45,5.32,5.32,5.33
48.97,7.36,2.07,7.37,2.07,-2.07,-2.01,-1.49,5.30,5.30,5.30
49.46,7.34,2.08,7.35,2.07,-2.07,-2.02,-1.53,5.27,5.27,5.26
49.96,7.32,2.09,7.33,2.08,-2.08,-2.03,-1.57,5.25,5.25,5.23
50.46,7.31,2.09,7.31,2.08,-2.08,-2.04,-1.61,5.23,5.22,5.23
50.96,7.28,2.08,7.29,2.09,-2.09,-2.04,-1.65,5.20,5.20,5.20
51.47,7.26,2.10,7.26,2.09,-2.09,-2.05,-1.70,5.17,5.17,5.17
51.99,7.24,2.10,7.24,2.10,-2.10,-2.06,-1.74,5.15,5.14,5.14
52.51,7.21,2.09,7.22,2.10,-2.10,-2.07,-1.78,5.11,5.12,5.12
53.03,7.19,2.10,7.19,2.10,-2.10,-2.07,-1.82,5.09,5.09,5.10
53.56,7.17,2.10,7.17,2.11,-2.11,-2.08,-1.86,5.07,5.06,5.07
54.10,7.15,2.11,7.14,2.11,-2.11,-2.09,-1.90,5.05,5.04,5.04
54.64,7.11,2.10,7.12,2.11,-2.11,-2.09,-1.94,5.01,5.01,5.01
55.18,7.08,2.10,7.09,2.11,-2.11,-2.10,-1.98,4.98,4.99,4.98
55.74,7.06,2.11,7.06,2.10,-2.10,-2.11,-2.02,4.96,4.96,4.95
56.29,7.02,2.09,7.03,2.10,-2.10,-2.11,-2.06,4.92,4.93,4.93
56.86,7.00,2.10,7.00,2.10,-2.10,-2.12,-2.09,4.91,4.90,4.90
57.42,6.97,2.11,6.97,2.09,-2.09,-2.12,-2.12,4.88,4.87,4.87
58.00,6.93,2.09,6.93,2.09,-2.09,-2.13,-2.15,4.85,4.84,4.84
58.58,6.89,2.08,6.90,2.08,-2.08,-2.13,-2.18,4.81,4.81,4.81
59.16,6.86,2.08,6.86,2.08,-2.08,-2.14,-2.21,4.79,4.78,4.79
59.76,6.82,2.06,6.82,2.07,-2.07,-2.14,-2.23,4.75,4.75,4.76
60.35,6.78,2.06,6.78,2.06,-2.06,-2.14,-2.25,4.72,4.72,4.73
60.96,6.73,2.03,6.74,2.05,-2.05,-2.15,-2.27,4.68,4.69,4.71
61.57,6.70,2.04,6.70,2.04,-2.04,-2.15,-2.29,4.66,4.66,4.66
62.18,6.66,2.04,6.66,2.03,-2.03,-2.15,-2.30,4.64,4.63,4.62
62.80,6.61,2.02,6.61,2.01,-2.01,-2.15,-2.31,4.60,4.60,4.59
63.43,6.56,2.01,6.56,2.00,-2.00,-2.16,-2.32,4.57,4.57,4.55
64.07,6.51,1.99,6.52,1.98,-1.98,-2.16,-2.33,4.53,4.53,4.52
64.71,6.47,1.97,6.47,1.96,-1.96,-2.16,-2.33,4.51,4.50,4.50
65.35,6.41,1.95,6.42,1.94,-1.94,-2.16,-2.33,4.47,4.47,4.47
66.01,6.36,1.92,6.37,1.92,-1.92,-2.16,-2.33,4.44,4.44,4.44
66.67,6.31,1.90,6.31,1.90,-1.90,-2.17,-2.32,4.41,4.41,4.41
67.33,6.26,1.88,6.26,1.88,-1.88,-2.17,-2.32,4.38,4.38,4.38
68.01,6.20,1.86,6.21,1.86,-1.86,-2.17,-2.31,4.35,4.35,4.35
68.69,6.15,1.83,6.15,1.83,-1.83,-2.17,-2.30,4.32,4.32,4.32
69.37,6.09,1.81,6.10,1.81,-1.81,-2.17,-2.28,4.28,4.29,4.28
70.07,6.04,1.79,6.04,1.79,-1.79,-2.17,-2.27,4.25,4.25,4.25
70.77,5.98,1.76,5.99,1.77,-1.77,-2.17,-2.26,4.21,4.22,4.22
71.48,5.93,1.75,5.93,1.75,-1.75,-2.17,-2.24,4.18,4.18,4.18
72.19,5.87,1.72,5.87,1.73,-1.73,-2.17,-2.23,4.14,4.14,4.15
72.91,5.82,1.72,5.82,1.71,-1.71,-2.17,-2.21,4.11,4.10,4.11
73.64,5.76,1.70,5.76,1.70,-1.70,-2.16,-2.19,4.07,4.06,4.06
74.38,5.70,1.68,5.71,1.68,-1.68,-2.16,-2.18,4.02,4.02,4.03
75.12,5.65,1.68,5.65,1.67,-1.67,-2.16,-2.16,3.98,3.98,3.97
75.87,5.59,1.66,5.60,1.66,-1.66,-2.16,-2.14,3.93,3.94,3.93
76.63,5.54,1.65,5.54,1.65,-1.65,-2.16,-2.13,3.89,3.89,3.90
77.40,5.48,1.64,5.49,1.64,-1.64,-2.16,-2.11,3.84,3.85,3.85
78.17,5.43,1.65,5.44,1.64,-1.64,-2.15,-2.10,3.79,3.80,3.79
78.95,5.38,1.63,5.39,1.64,-1.64,-2.15,-2.08,3.75,3.75,3.76
79.74,5.33,1.63,5.34,1.64,-1.64,-2.15,-2.07,3.70,3.70,3.70
80.54,5.28,1.63,5.29,1.64,-1.64,-2.15,-2.06,3.65,3.65,3.65
81.35,5.24,1.65,5.24,1.64,-1.64,-2.14,-2.05,3.60,3.60,3.60
82.16,5.19,1.65,5.19,1.65,-1.65,-2.14,-2.04,3.55,3.54,3.54
82.98,5.14,1.65,5.15,1.66,-1.66,-2.14,-2.04,3.49,3.49,3.50
83.81,5.10,1.67,5.10,1.67,-1.67,-2.13,-2.03,3.44,3.44,3.43
84.65,5.05,1.68,5.06,1.68,-1.68,-2.13,-2.02,3.38,3.38,3.37
85.50,5.01,1.69,5.01,1.69,-1.69,-2.12,-2.02,3.32,3.32,3.33
86.35,4.97,1.71,4.97,1.71,-1.71,-2.12,-2.02,3.27,3.27,3.27
87.22,4.92,1.72,4.93,1.72,-1.72,-2.12,-2.02,3.20,3.21,3.21
88.09,4.89,1.75,4.89,1.74,-1.74,-2.11,-2.02,3.15,3.15,3.15
88.97,4.85,1.76,4.85,1.76,-1.76,-2.11,-2.03,3.09,3.09,3.09
89.86,4.81,1.78,4.81,1.78,-1.78,-2.10,-2.03,3.03,3.03,3.03
90.76,4.77,1.81,4.77,1.81,-1.81,-2.10,-2.04,2.97,2.97,2.96
91.66,4.73,1.83,4.74,1.83,-1.83,-2.09,-2.05,2.90,2.91,2.91
92.58,4.69,1.86,4.70,1.86,-1.86,-2.08,-2.06,2.84,2.85,2.83
93.51,4.66,1.87,4.67,1.88,-1.88,-2.08,-2.07,2.78,2.78,2.79
94.44,4.63,1.91,4.63,1.91,-1.91,-2.07,-2.08,2.72,2.72,2.72
95.39,4.59,1.93,4.59,1.94,-1.94,-2.07,-2.10,2.65,2.65,2.66
96.34,4.55,1.97,4.56,1.97,-1.97,-2.06,-2.11,2.58,2.58,2.58
97.30,4.51,2.00,4.52,2.00,-2.00,-2.05,-2.13,2.51,2.52,2.52
98.28,4.48,2.03,4.48,2.03,-2.03,-2.04,-2.15,2.45,2.45,2.45
99.26,4.44,2.07,4.44,2.07,-2.07,-2.04,-2.16,2.38,2.38,2.37
100.25,4.40,2.10,4.40,2.10,-2.10,-2.03,-2.18,2.31,2.31,2.31
101.25,4.36,2.12,4.36,2.13,-2.13,-2.02,-2.20,2.24,2.24,2.24
102.27,4.32,2.16,4.32,2.16,-2.16,-2.01,-2.23,2.17,2.16,2.16
103.29,4.27,2.19,4.28,2.18,-2.18,-2.01,-2.25,2.09,2.09,2.08
104.32,4.22,2.21,4.23,2.21,-2.21,-2.00,-2.27,2.01,2.02,2.02
105.37,4.18,2.24,4.18,2.23,-2.23,-1.99,-2.29,1.95,1.94,1.95
106.42,4.12,2.25,4.12,2.26,-2.26,-1.98,-2.31,1.87,1.87,1.87
107.48,4.06,2.27,4.07,2.27,-2.27,-1.97,-2.33,1.79,1.79,1.79
108.56,4.01,2.30,4.00,2.29,-2.29,-1.96,-2.35,1.72,1.72,1.72
109.64,3.94,2.31,3.94,2.30,-2.30,-1.95,-2.37,1.64,1.64,1.64
110.74,3.88,2.31,3.87,2.31,-2.31,-1.94,-2.39,1.58,1.56,1.57
111.85,3.80,2.31,3.79,2.31,-2.31,-1.93,-2.40,1.49,1.48,1.49
112.97,3.72,2.33,3.72,2.31,-2.31,-1.92,-2.42,1.41,1.41,1.40
114.10,3.64,2.31,3.64,2.31,-2.31,-1.91,-2.43,1.34,1.33,1.33
115.24,3.56,2.31,3.55,2.30,-2.30,-1.90,-2.44,1.26,1.25,1.25
116.39,3.47,2.31,3.47,2.29,-2.29,-1.89,-2.44,1.18,1.18,1.17
117.55,3.37,2.28,3.38,2.28,-2.28,-1.88,-2.45,1.09,1.10,1.09
118.73,3.28,2.27,3.29,2.27,-2.27,-1.86,-2.45,1.02,1.03,1.02
119.92,3.19,2.24,3.20,2.25,-2.25,-1.85,-2.45,0.94,0.95,0.95
121.12,3.10,2.22,3.12,2.24,-2.24,-1.84,-2.44,0.87,0.88,0.88
122.33,3.02,2.22,3.03,2.22,-2.22,-1.83,-2.43,0.80,0.81,0.81
123.55,2.93,2.19,2.94,2.21,-2.21,-1.81,-2.42,0.73,0.74,0.74
124.79,2.85,2.18,2.85,2.19,-2.19,-1.80,-2.40,0.67,0.67,0.67
126.03,2.76,2.15,2.77,2.17,-2.17,-1.79,-2.38,0.59,0.60,0.61
127.29,2.68,2.14,2.69,2.15,-2.15,-1.77,-2.35,0.53,0.53,0.54
128.57,2.60,2.14,2.60,2.14,-2.14,-1.76,-2.32,0.47,0.47,0.46
129.85,2.53,2.13,2.52,2.12,-2.12,-1.74,-2.29,0.41,0.40,0.40
131.15,2.44,2.10,2.45,2.10,-2.10,-1.73,-2.26,0.34,0.34,0.34
132.46,2.37,2.10,2.37,2.08,-2.08,-1.71,-2.22,0.29,0.28,0.27
133.79,2.29,2.07,2.29,2.07,-2.07,-1.70,-2.17,0.23,0.22,0.23
135.12,2.21,2.05,2.22,2.05,-2.05,-1.68,-2.12,0.17,0.17,0.16
136.48,2.13,2.02,2.14,2.02,-2.02,-1.67,-2.07,0.11,0.12,0.12
137.84,2.06,1.99,2.07,2.00,-2.00,-1.65,-2.02,0.06,0.07,0.07
139.22,1.99,1.98,2.00,1.98,-1.98,-1.63,-1.97,0.01,0.02,0.01
140.61,1.92,1.97,1.93,1.95,-1.95,-1.61,-1.91,-0.03,-0.03,-0.04
142.02,1.85,1.92,1.86,1.93,-1.93,-1.60,-1.85,-0.07,-0.07,-0.06
143.44,1.78,1.89,1.79,1.90,-1.90,-1.58,-1.79,-0.11,-0.11,-0.10
144.87,1.71,1.87,1.72,1.87,-1.87,-1.56,-1.72,-0.15,-0.15,-0.15
146.32,1.65,1.85,1.65,1.84,-1.84,-1.54,-1.66,-0.18,-0.19,-0.19
147.78,1.58,1.80,1.58,1.80,-1.80,-1.52,-1.59,-0.22,-0.23,-0.22
149.26,1.51,1.77,1.51,1.77,-1.77,-1.50,-1.52,-0.26,-0.26,-0.26
150.75,1.43,1.73,1.43,1.73,-1.73,-1.48,-1.45,-0.30,-0.30,-0.30
152.26,1.36,1.70,1.36,1.69,-1.69,-1.46,-1.38,-0.33,-0.33,-0.33
153.78,1.28,1.65,1.28,1.65,-1.65,-1.43,-1.31,-0.37,-0.37,-0.37
155.32,1.21,1.61,1.21,1.61,-1.61,-1.41,-1.24,-0.40,-0.40,-0.40
156.88,1.12,1.56,1.13,1.57,-1.57,-1.39,-1.17,-0.44,-0.44,-0.43
158.44,1.04,1.52,1.05,1.52,-1.52,-1.36,-1.10,-0.47,-0.47,-0.47
160.03,0.96,1.48,0.96,1.47,-1.47,-1.33,-1.03,-0.50,-0.51,-0.51
161.63,0.87,1.42,0.88,1.42,-1.42,-1.31,-0.96,-0.54,-0.54,-0.55
163.24,0.78,1.36,0.79,1.36,-1.36,-1.28,-0.89,-0.58,-0.58,-0.58
164.88,0.70,1.31,0.70,1.31,-1.31,-1.25,-0.81,-0.60,-0.61,-0.61
166.53,0.60,1.24,0.60,1.25,-1.25,-1.22,-0.74,-0.65,-0.65,-0.64
168.19,0.51,1.20,0.51,1.19,-1.19,-1.19,-0.67,-0.68,-0.68,-0.69
169.87,0.41,1.13,0.41,1.13,-1.13,-1.16,-0.60,-0.72,-0.72,-0.72
171.57,0.31,1.07,0.31,1.07,-1.07,-1.13,-0.53,-0.76,-0.76,-0.75
173.29,0.21,1.00,0.21,1.01,-1.01,-1.09,-0.46,-0.79,-0.80,-0.78
175.02,0.11,0.94,0.11,0.95,-0.95,-1.06,-0.39,-0.83,-0.84,-0.83
176.77,0.00,0.88,0.01,0.88,-0.88,-1.02,-0.32,-0.88,-0.88,-0.88
178.54,-0.10,0.82,-0.10,0.81,-0.81,-0.98,-0.25,-0.91,-0.91,-0.92
180.32,-0.21,0.75,-0.21,0.75,-0.75,-0.94,-0.18,-0.95,-0.95,-0.95
182.13,-0.32,0.68,-0.31,0.68,-0.68,-0.90,-0.11,-1.00,-0.99,-0.99
183.95,-0.43,0.61,-0.42,0.61,-0.61,-0.85,-0.04,-1.04,-1.03,-1.04
185.79,-0.53,0.55,-0.53,0.55,-0.55,-0.80,0.03,-1.07,-1.07,-1.07
187.65,-0.64,0.48,-0.63,0.48,-0.48,-0.75,0.10,-1.11,-1.11,-1.12
189.52,-0.75,0.41,-0.74,0.41,-0.41,-0.70,0.17,-1.16,-1.15,-1.15
191.42,-0.85,0.34,-0.84,0.34,-0.34,-0.64,0.24,-1.19,-1.18,-1.19
193.33,-0.96,0.26,-0.95,0.27,-0.27,-0.58,0.31,-1.23,-1.22,-1.21
195.27,-1.07,0.18,-1.05,0.20,-0.20,-0.52,0.37,-1.26,-1.25,-1.24
197.22,-1.17,0.11,-1.16,0.12,-0.12,-0.45,0.44,-1.29,-1.28,-1.28
199.19,-1.27,0.06,-1.26,0.05,-0.05,-0.38,0.51,-1.32,-1.31,-1.33
201.18,-1.38,-0.03,-1.37,-0.03,0.03,-0.30,0.57,-1.35,-1.34,-1.35
203.19,-1.49,-0.12,-1.48,-0.11,0.11,-0.22,0.64,-1.38,-1.37,-1.37
205.23,-1.59,-0.19,-1.59,-0.19,0.19,-0.13,0.70,-1.40,-1.39,-1.40
207.28,-1.70,-0.29,-1.70,-0.28,0.28,-0.03,0.77,-1.42,-1.42,-1.40
209.35,-1.82,-0.37,-1.82,-0.38,0.38,0.07,0.83,-1.44,-1.44,-1.44
211.44,-1.93,-0.46,-1.94,-0.48,0.48,0.18,0.89,-1.45,-1.46,-1.47
213.56,-2.06,-0.57,-2.07,-0.59,0.59,0.30,0.95,-1.47,-1.48,-1.49
215.69,-2.19,-0.69,-2.21,-0.71,0.71,0.42,1.01,-1.48,-1.50,-1.49
217.85,-2.34,-0.83,-2.35,-0.84,0.84,0.56,1.06,-1.50,-1.51,-1.51
220.03,-2.48,-0.94,-2.51,-0.98,0.98,0.71,1.12,-1.50,-1.53,-1.53
222.23,-2.64,-1.09,-2.66,-1.13,1.13,0.86,1.17,-1.51,-1.54,-1.55
224.45,-2.81,-1.27,-2.83,-1.29,1.29,1.03,1.22,-1.52,-1.54,-1.54
226.70,-2.98,-1.42,-3.00,-1.45,1.45,1.21,1.27,-1.53,-1.55,-1.55
228.96,-3.16,-1.60,-3.17,-1.62,1.62,1.40,1.32,-1.53,-1.55,-1.56
231.25,-3.34,-1.79,-3.35,-1.80,1.80,1.60,1.36,-1.54,-1.55,-1.55
233.57,-3.52,-1.97,-3.53,-1.98,1.98,1.81,1.40,-1.54,-1.55,-1.54
235.90,-3.70,-2.15,-3.70,-2.16,2.16,2.02,1.43,-1.54,-1.54,-1.54
238.26,-3.86,-2.31,-3.87,-2.33,2.33,2.23,1.47,-1.52,-1.54,-1.55
240.64,-4.03,-2.50,-4.03,-2.50,2.50,2.44,1.50,-1.52,-1.53,-1.53
243.05,-4.17,-2.65,-4.18,-2.66,2.66,2.64,1.52,-1.51,-1.51,-1.52
245.48,-4.31,-2.81,-4.31,-2.81,2.81,2.81,1.55,-1.50,-1.50,-1.50
247.93,-4.43,-2.94,-4.42,-2.93,2.93,2.97,1.57,-1.50,-1.49,-1.49
250.41,-4.52,-3.04,-4.50,-3.03,3.03,3.09,1.58,-1.48,-1.47,-1.48
252.92,-4.59,-3.14,-4.56,-3.11,3.11,3.17,1.59,-1.48,-1.45,-1.45
255.45,-4.63,-3.20,-4.59,-3.16,3.16,3.20,1.60,-1.47,-1.43,-1.42
258.00,-4.64,-3.23,-4.58,-3.17,3.17,3.19,1.60,-1.47,-1.41,-1.40
260.58,-4.60,-3.21,-4.54,-3.15,3.15,3.13,1.61,-1.44,-1.39,-1.39
263.19,-4.54,-3.17,-4.47,-3.10,3.10,3.04,1.60,-1.44,-1.37,-1.37
265.82,-4.43,-3.08,-4.36,-3.01,3.01,2.92,1.60,-1.41,-1.34,-1.35
268.48,-4.29,-2.96,-4.22,-2.89,2.89,2.76,1.59,-1.39,-1.32,-1.32
271.16,-4.10,-2.81,-4.04,-2.74,2.74,2.60,1.58,-1.35,-1.30,-1.29
273.87,-3.90,-2.62,-3.84,-2.57,2.57,2.42,1.56,-1.33,-1.28,-1.28
276.61,-3.66,-2.41,-3.62,-2.37,2.37,2.24,1.55,-1.28,-1.25,-1.24
279.38,-3.40,-2.17,-3.39,-2.16,2.16,2.07,1.53,-1.24,-1.23,-1.23
282.17,-3.14,-1.93,-3.14,-1.93,1.93,1.90,1.51,-1.20,-1.21,-1.21
284.99,-2.87,-1.68,-2.89,-1.71,1.71,1.73,1.48,-1.16,-1.18,-1.18
287.84,-2.60,-1.44,-2.64,-1.48,1.48,1.58,1.46,-1.11,-1.15,-1.16
290.72,-2.34,-1.21,-2.39,-1.27,1.27,1.44,1.43,-1.07,-1.13,-1.12
293.63,-2.10,-0.99,-2.16,-1.06,1.06,1.30,1.41,-1.04,-1.10,-1.11
296.57,-1.88,-0.80,-1.94,-0.87,0.87,1.18,1.38,-1.00,-1.07,-1.07
299.53,-1.69,-0.64,-1.75,-0.70,0.70,1.07,1.35,-0.98,-1.04,-1.05
302.53,-1.52,-0.49,-1.57,-0.56,0.56,0.97,1.32,-0.96,-1.01,-1.02
305.55,-1.38,-0.40,-1.41,-0.43,0.43,0.88,1.29,-0.95,-0.98,-0.98
308.61,-1.25,-0.29,-1.28,-0.33,0.33,0.80,1.26,-0.92,-0.95,-0.95
311.69,-1.14,-0.22,-1.16,-0.24,0.24,0.72,1.23,-0.89,-0.92,-0.92
314.81,-1.06,-0.18,-1.07,-0.18,0.18,0.66,1.20,-0.88,-0.89,-0.88
317.96,-1.00,-0.14,-0.99,-0.13,0.13,0.60,1.17,-0.86,-0.86,-0.85
321.14,-0.94,-0.11,-0.93,-0.10,0.10,0.54,1.14,-0.83,-0.83,-0.83
324.35,-0.90,-0.10,-0.88,-0.08,0.08,0.49,1.11,-0.81,-0.80,-0.80
327.59,-0.86,-0.09,-0.84,-0.07,0.07,0.45,1.08,-0.78,-0.77,-0.76
330.87,-0.83,-0.09,-0.81,-0.07,0.07,0.41,1.05,-0.76,-0.74,-0.74
334.18,-0.81,-0.09,-0.79,-0.07,0.07,0.38,1.02,-0.73,-0.72,-0.72
337.52,-0.78,-0.08,-0.77,-0.08,0.08,0.35,1.00,-0.70,-0.69,-0.69
340.90,-0.77,-0.10,-0.76,-0.09,0.09,0.32,0.97,-0.68,-0.67,-0.67
344.30,-0.76,-0.11,-0.75,-0.10,0.10,0.30,0.94,-0.66,-0.65,-0.65
347.75,-0.75,-0.12,-0.74,-0.11,0.11,0.28,0.92,-0.63,-0.63,-0.62
351.23,-0.73,-0.12,-0.73,-0.12,0.12,0.26,0.89,-0.60,-0.61,-0.61
354.74,-0.73,-0.14,-0.73,-0.14,0.14,0.25,0.87,-0.59,-0.59,-0.59
358.28,-0.73,-0.16,-0.72,-0.15,0.15,0.24,0.84,-0.58,-0.57,-0.57
361.87,-0.72,-0.16,-0.71,-0.16,0.16,0.23,0.82,-0.55,-0.55,-0.55
365.49,-0.72,-0.19,-0.71,-0.17,0.17,0.22,0.80,-0.54,-0.53,-0.52
369.14,-0.71,-0.19,-0.70,-0.19,0.19,0.21,0.78,-0.52,-0.51,-0.52
372.83,-0.70,-0.20,-0.69,-0.20,0.20,0.21,0.75,-0.50,-0.49,-0.50
376.56,-0.68,-0.20,-0.68,-0.21,0.21,0.20,0.73,-0.47,-0.47,-0.48
380.33,-0.68,-0.22,-0.67,-0.21,0.21,0.20,0.72,-0.46,-0.45,-0.45
384.13,-0.66,-0.22,-0.65,-0.22,0.22,0.20,0.70,-0.44,-0.44,-0.43
387.97,-0.65,-0.23,-0.64,-0.22,0.22,0.20,0.68,-0.42,-0.42,-0.42
391.85,-0.63,-0.23,-0.62,-0.23,0.23,0.20,0.66,-0.40,-0.39,-0.40
395.77,-0.61,-0.24,-0.61,-0.23,0.23,0.21,0.64,-0.37,-0.37,-0.37
399.73,-0.59,-0.24,-0.59,-0.24,0.24,0.21,0.63,-0.35,-0.35,-0.35
403.72,-0.57,-0.23,-0.57,-0.24,0.24,0.21,0.61,-0.33,-0.33,-0.33
407.76,-0.56,-0.24,-0.55,-0.24,0.24,0.22,0.60,-0.32,-0.31,-0.31
411.84,-0.54,-0.25,-0.53,-0.24,0.24,0.23,0.59,-0.30,-0.29,-0.29
415.96,-0.51,-0.24,-0.51,-0.24,0.24,0.23,0.57,-0.27,-0.27,-0.27
420.12,-0.49,-0.24,-0.49,-0.24,0.24,0.24,0.56,-0.24,-0.25,-0.25
424.32,-0.47,-0.25,-0.47,-0.24,0.24,0.25,0.55,-0.22,-0.22,-0.22
428.56,-0.45,-0.25,-0.45,-0.25,0.25,0.26,0.54,-0.20,-0.20,-0.20
432.85,-0.44,-0.25,-0.43,-0.25,0.25,0.27,0.53,-0.18,-0.18,-0.18
437.18,-0.41,-0.25,-0.41,-0.26,0.26,0.28,0.52,-0.15,-0.15,-0.15
441.55,-0.39,-0.26,-0.40,-0.27,0.27,0.29,0.51,-0.12,-0.13,-0.12
445.96,-0.38,-0.27,-0.38,-0.28,0.28,0.30,0.50,-0.10,-0.10,-0.10
450.42,-0.37,-0.28,-0.37,-0.29,0.29,0.31,0.49,-0.07,-0.08,-0.09
454.93,-0.36,-0.31,-0.36,-0.31,0.31,0.32,0.49,-0.05,-0.05,-0.05
459.48,-0.35,-0.32,-0.35,-0.32,0.32,0.33,0.48,-0.02,-0.02,-0.03
464.07,-0.34,-0.34,-0.34,-0.34,0.34,0.34,0.47,0.01,0.00,0.00
468.71,-0.33,-0.37,-0.33,-0.36,0.36,0.36,0.47,0.03,0.03,0.04
473.40,-0.33,-0.39,-0.32,-0.38,0.38,0.37,0.46,0.06,0.06,0.06
478.13,-0.32,-0.41,-0.32,-0.40,0.40,0.38,0.46,0.09,0.09,0.09
482.91,-0.32,-0.43,-0.31,-0.43,0.43,0.40,0.46,0.11,0.12,0.12
487.74,-0.31,-0.45,-0.31,-0.45,0.45,0.41,0.46,0.15,0.15,0.15
492.62,-0.30,-0.47,-0.30,-0.48,0.48,0.42,0.46,0.18,0.17,0.18
497.55,-0.30,-0.49,-0.30,-0.50,0.50,0.44,0.45,0.21,0.20,0.20
502.52,-0.30,-0.53,-0.30,-0.53,0.53,0.45,0.45,0.23,0.23,0.24
