frequency,raw,error,smoothed,error_smoothed,equalization,parametric_eq,fixed_band_eq,equalized_raw,equalized_smoothed,target
20.00,-9.02,-13.71,-9.02,-13.71,13.69,13.85,4.81,4.68,4.67,4.69
20.20,-8.90,-13.64,-8.89,-13.64,13.63,13.87,4.93,4.74,4.74,4.74
20.40,-8.78,-13.57,-8.77,-13.56,13.57,13.87,5.06,4.79,4.79,4.79
20.61,-8.66,-13.48,-8.65,-13.49,13.50,13.85,5.19,4.84,4.84,4.82
20.81,-8.54,-13.41,-8.54,-13.41,13.42,13.82,5.33,4.89,4.89,4.87
21.02,-8.42,-13.33,-8.42,-13.33,13.35,13.76,5.47,4.93,4.92,4.91
21.23,-8.32,-13.25,-8.31,-13.25,13.26,13.69,5.61,4.95,4.95,4.93
21.44,-8.21,-13.17,-8.22,-13.17,13.17,13.60,5.76,4.96,4.96,4.95
21.66,-8.12,-13.09,-8.12,-13.09,13.08,13.50,5.91,4.97,4.96,4.97
21.87,-8.01,-13.00,-8.01,-13.00,12.98,13.39,6.06,4.97,4.97,4.98
22.09,-7.90,-12.91,-7.90,-12.90,12.88,13.27,6.22,4.97,4.98,5.00
22.31,-7.77,-12.79,-7.78,-12.79,12.77,13.14,6.39,4.99,4.99,5.01
22.54,-7.65,-12.66,-7.65,-12.66,12.65,12.99,6.55,5.01,5.01,5.01
22.76,-7.52,-12.53,-7.51,-12.52,12.54,12.85,6.73,5.03,5.03,5.01
22.99,-7.39,-12.39,-7.40,-12.40,12.43,12.70,6.90,5.04,5.03,5.00
23.22,-7.29,-12.29,-7.29,-12.29,12.32,12.54,7.09,5.03,5.03,5.00
23.45,-7.20,-12.20,-7.19,-12.20,12.21,12.38,7.27,5.01,5.02,5.00
23.69,-7.10,-12.11,-7.10,-12.11,12.10,12.22,7.46,5.00,5.00,5.01
23.92,-7.00,-12.02,-7.00,-12.02,12.00,12.06,7.66,5.00,5.00,5.01
24.16,-6.91,-11.92,-6.90,-11.92,11.90,11.90,7.86,5.00,5.00,5.01
24.40,-6.79,-11.82,-6.80,-11.82,11.81,11.74,8.07,5.01,5.01,5.02
24.65,-6.70,-11.71,-6.69,-11.71,11.71,11.58,8.28,5.02,5.02,5.01
24.89,-6.58,-11.60,-6.59,-11.60,11.62,11.43,8.49,5.03,5.03,5.01
25.14,-6.49,-11.50,-6.49,-11.50,11.52,11.27,8.71,5.03,5.03,5.01
25.39,-6.39,-11.42,-6.39,-11.41,11.41,11.12,8.93,5.02,5.02,5.02
25.65,-6.30,-11.32,-6.30,-11.32,11.31,10.97,9.16,5.01,5.01,5.02
25.91,-6.21,-11.22,-6.20,-11.22,11.20,10.83,9.39,4.99,5.00,5.01
26.16,-6.08,-11.10,-6.09,-11.10,11.09,10.69,9.62,5.01,5.00,5.01
26.43,-5.97,-10.98,-5.97,-10.98,10.98,10.55,9.86,5.01,5.01,5.01
26.69,-5.85,-10.86,-5.85,-10.86,10.86,10.42,10.09,5.02,5.02,5.01
26.96,-5.73,-10.74,-5.73,-10.74,10.74,10.29,10.33,5.02,5.01,5.01
27.23,-5.62,-10.63,-5.61,-10.63,10.63,10.17,10.56,5.01,5.01,5.01
27.50,-5.50,-10.51,-5.50,-10.51,10.51,10.05,10.79,5.02,5.02,5.01
27.77,-5.38,-10.39,-5.39,-10.39,10.40,9.93,11.02,5.02,5.02,5.00
28.05,-5.28,-10.28,-5.28,-10.28,10.29,9.82,11.25,5.02,5.01,5.00
28.33,-5.19,-10.18,-5.19,-10.18,10.19,9.71,11.46,5.00,5.00,4.99
28.62,-5.10,-10.09,-5.09,-10.09,10.08,9.61,11.67,4.98,4.98,4.99
28.90,-5.00,-10.00,-5.00,-9.99,9.97,9.51,11.86,4.97,4.97,5.00
29.19,-4.89,-9.88,-4.88,-9.88,9.87,9.41,12.04,4.98,4.98,4.99
29.48,-4.77,-9.77,-4.76,-9.76,9.76,9.32,12.21,5.00,5.00,5.00
29.78,-4.64,-9.63,-4.64,-9.64,9.66,9.23,12.35,5.02,5.02,4.99
30.08,-4.53,-9.53,-4.54,-9.53,9.55,9.15,12.47,5.03,5.02,5.00
30.38,-4.45,-9.44,-4.45,-9.44,9.45,9.07,12.57,5.00,5.00,4.99
30.68,-4.37,-9.36,-4.37,-9.36,9.34,8.99,12.64,4.97,4.97,4.99
30.99,-4.29,-9.28,-4.28,-9.26,9.24,8.92,12.68,4.95,4.96,4.99
31.30,-4.17,-9.15,-4.16,-9.15,9.14,8.85,12.69,4.98,4.98,4.98
31.61,-4.05,-9.03,-4.05,-9.03,9.05,8.78,12.68,5.01,5.01,4.98
31.93,-3.93,-8.91,-3.94,-8.92,8.96,8.71,12.63,5.04,5.02,4.98
32.24,-3.87,-8.84,-3.87,-8.85,8.87,8.65,12.56,5.00,5.00,4.97
32.57,-3.82,-8.79,-3.82,-8.79,8.77,8.59,12.47,4.96,4.96,4.97
32.89,-3.77,-8.74,-3.75,-8.72,8.68,8.53,12.35,4.91,4.93,4.97
33.22,-3.67,-8.63,-3.65,-8.62,8.59,8.47,12.20,4.92,4.93,4.96
33.55,-3.53,-8.50,-3.54,-8.50,8.50,8.42,12.04,4.96,4.96,4.96
33.89,-3.40,-8.35,-3.41,-8.37,8.40,8.36,11.86,5.01,4.99,4.95
34.23,-3.32,-8.27,-3.32,-8.27,8.30,8.30,11.67,4.98,4.98,4.95
34.57,-3.25,-8.19,-3.25,-8.19,8.19,8.25,11.46,4.95,4.95,4.94
34.92,-3.19,-8.13,-3.17,-8.11,8.09,8.19,11.25,4.90,4.91,4.94
35.27,-3.08,-8.01,-3.07,-8.00,7.98,8.14,11.03,4.90,4.91,4.93
35.62,-2.95,-7.88,-2.95,-7.89,7.88,8.08,10.80,4.93,4.93,4.93
35.97,-2.83,-7.76,-2.84,-7.77,7.78,8.02,10.57,4.96,4.95,4.93
36.33,-2.74,-7.67,-2.74,-7.67,7.69,7.96,10.34,4.95,4.95,4.93
36.70,-2.66,-7.58,-2.65,-7.58,7.59,7.90,10.10,4.93,4.94,4.92
37.06,-2.57,-7.49,-2.57,-7.49,7.49,7.84,9.87,4.93,4.93,4.92
37.43,-2.48,-7.41,-2.48,-7.41,7.40,7.77,9.64,4.92,4.92,4.93
37.81,-2.40,-7.33,-2.39,-7.32,7.31,7.70,9.41,4.92,4.92,4.93
38.19,-2.31,-7.23,-2.30,-7.24,7.23,7.63,9.18,4.93,4.93,4.92
38.57,-2.22,-7.15,-2.22,-7.15,7.16,7.55,8.96,4.94,4.94,4.93
38.95,-2.13,-7.07,-2.13,-7.07,7.08,7.48,8.74,4.95,4.95,4.94
39.34,-2.06,-6.99,-2.06,-7.00,7.00,7.39,8.52,4.95,4.94,4.93
39.74,-2.00,-6.93,-1.99,-6.93,6.92,7.31,8.31,4.93,4.93,4.93
40.14,-1.93,-6.86,-1.92,-6.85,6.85,7.22,8.10,4.92,4.92,4.93
40.54,-1.85,-6.78,-1.84,-6.78,6.77,7.13,7.90,4.92,4.92,4.93
40.94,-1.76,-6.68,-1.76,-6.69,6.68,7.04,7.70,4.93,4.92,4.92
41.35,-1.68,-6.60,-1.68,-6.60,6.60,6.94,7.51,4.92,4.92,4.92
41.76,-1.60,-6.51,-1.59,-6.51,6.51,6.84,7.32,4.92,4.92,4.91
42.18,-1.51,-6.42,-1.50,-6.41,6.42,6.74,7.14,4.91,4.91,4.91
42.60,-1.42,-6.32,-1.41,-6.32,6.32,6.63,6.96,4.90,4.91,4.90
43.03,-1.32,-6.21,-1.33,-6.22,6.22,6.52,6.78,4.90,4.89,4.89
43.46,-1.25,-6.13,-1.24,-6.12,6.11,6.41,6.61,4.87,4.87,4.88
43.90,-1.17,-6.03,-1.15,-6.02,6.01,6.30,6.45,4.84,4.85,4.86
44.33,-1.06,-5.90,-1.06,-5.90,5.90,6.19,6.29,4.84,4.84,4.84
44.78,-0.95,-5.77,-0.95,-5.78,5.79,6.07,6.13,4.84,4.84,4.82
45.23,-0.85,-5.66,-0.86,-5.67,5.68,5.96,5.98,4.83,4.83,4.81
45.68,-0.78,-5.58,-0.77,-5.57,5.58,5.84,5.83,4.80,4.80,4.80
46.13,-0.70,-5.48,-0.69,-5.48,5.47,5.73,5.69,4.78,4.78,4.78
46.60,-0.60,-5.38,-0.60,-5.38,5.37,5.61,5.55,4.77,4.77,4.78
47.06,-0.51,-5.27,-0.51,-5.27,5.27,5.49,5.41,4.77,4.77,4.76
47.53,-0.42,-5.17,-0.42,-5.18,5.18,5.38,5.28,4.77,4.77,4.75
48.01,-0.34,-5.09,-0.34,-5.09,5.10,5.26,5.15,4.76,4.75,4.75
48.49,-0.28,-5.01,-0.27,-5.01,5.01,5.15,5.03,4.73,4.74,4.73
48.97,-0.22,-4.93,-0.21,-4.92,4.93,5.03,4.91,4.71,4.72,4.71
49.46,-0.15,-4.84,-0.14,-4.84,4.84,4.92,4.79,4.69,4.69,4.69
49.96,-0.08,-4.75,-0.09,-4.77,4.75,4.81,4.68,4.68,4.66,4.67
50.46,-0.03,-4.69,-0.03,-4.70,4.67,4.70,4.56,4.65,4.64,4.66
50.96,0.01,-4.64,0.05,-4.60,4.59,4.59,4.46,4.61,4.64,4.65
51.47,0.13,-4.50,0.14,-4.50,4.51,4.48,4.35,4.64,4.65,4.63
51.99,0.26,-4.36,0.22,-4.41,4.43,4.37,4.25,4.69,4.64,4.62
52.51,0.28,-4.33,0.29,-4.33,4.35,4.27,4.15,4.63,4.63,4.61
53.03,0.30,-4.31,0.34,-4.27,4.27,4.16,4.05,4.57,4.60,4.61
53.56,0.39,-4.20,0.39,-4.21,4.19,4.06,3.96,4.58,4.57,4.59
54.10,0.47,-4.11,0.46,-4.12,4.11,3.96,3.86,4.58,4.57,4.58
54.64,0.52,-4.04,0.53,-4.03,4.04,3.86,3.77,4.56,4.57,4.56
55.18,0.59,-3.97,0.60,-3.96,3.97,3.77,3.68,4.57,4.57,4.56
55.74,0.66,-3.88,0.65,-3.89,3.90,3.67,3.60,4.57,4.56,4.54
56.29,0.71,-3.82,0.70,-3.83,3.83,3.58,3.51,4.55,4.53,4.53
56.86,0.72,-3.80,0.75,-3.76,3.76,3.49,3.43,4.49,4.51,4.52
57.42,0.79,-3.70,0.80,-3.70,3.69,3.40,3.35,4.49,4.49,4.49
58.00,0.88,-3.60,0.85,-3.64,3.63,3.31,3.27,4.51,4.47,4.48
58.58,0.89,-3.58,0.91,-3.56,3.56,3.23,3.19,4.45,4.47,4.47
59.16,0.93,-3.52,0.96,-3.50,3.49,3.15,3.12,4.43,4.45,4.45
59.76,1.02,-3.41,1.01,-3.42,3.43,3.06,3.04,4.45,4.44,4.43
60.35,1.06,-3.33,1.05,-3.34,3.36,2.98,2.97,4.43,4.41,4.39
60.96,1.07,-3.28,1.07,-3.29,3.30,2.91,2.90,4.37,4.36,4.35
61.57,1.06,-3.25,1.08,-3.23,3.23,2.83,2.83,4.29,4.31,4.31
62.18,1.08,-3.19,1.10,-3.17,3.16,2.75,2.76,4.24,4.26,4.27
62.80,1.15,-3.07,1.13,-3.10,3.09,2.68,2.69,4.24,4.22,4.22
63.43,1.17,-3.01,1.17,-3.01,3.01,2.61,2.62,4.18,4.17,4.18
64.07,1.18,-2.95,1.20,-2.93,2.92,2.54,2.56,4.11,4.13,4.13
64.71,1.24,-2.85,1.25,-2.84,2.83,2.47,2.49,4.08,4.08,4.09
65.35,1.31,-2.74,1.30,-2.75,2.74,2.40,2.43,4.06,4.05,4.05
66.01,1.37,-2.63,1.35,-2.65,2.66,2.33,2.36,4.03,4.01,4.00
66.67,1.37,-2.58,1.40,-2.55,2.58,2.27,2.30,3.95,3.98,3.95
67.33,1.42,-2.48,1.44,-2.46,2.50,2.20,2.24,3.92,3.94,3.90
68.01,1.51,-2.35,1.47,-2.39,2.42,2.14,2.18,3.93,3.89,3.86
68.69,1.48,-2.33,1.47,-2.34,2.33,2.08,2.12,3.82,3.80,3.81
69.37,1.45,-2.31,1.47,-2.30,2.25,2.02,2.06,3.70,3.72,3.76
70.07,1.44,-2.27,1.49,-2.23,2.16,1.96,2.00,3.61,3.65,3.71
70.77,1.57,-2.09,1.56,-2.10,2.08,1.90,1.94,3.65,3.64,3.66
71.48,1.65,-1.96,1.63,-1.97,2.00,1.85,1.88,3.65,3.63,3.61
72.19,1.69,-1.85,1.68,-1.87,1.92,1.79,1.82,3.61,3.60,3.54
72.91,1.67,-1.81,1.69,-1.80,1.84,1.74,1.77,3.51,3.52,3.48
73.64,1.67,-1.76,1.68,-1.75,1.76,1.68,1.71,3.43,3.44,3.43
74.38,1.67,-1.70,1.67,-1.70,1.69,1.63,1.66,3.36,3.36,3.37
75.12,1.67,-1.64,1.67,-1.64,1.62,1.58,1.60,3.30,3.30,3.31
75.87,1.67,-1.58,1.67,-1.58,1.57,1.53,1.55,3.25,3.25,3.25
76.63,1.67,-1.53,1.67,-1.53,1.53,1.48,1.49,3.20,3.20,3.20
77.40,1.67,-1.48,1.67,-1.48,1.49,1.43,1.44,3.16,3.16,3.15
78.17,1.67,-1.42,1.67,-1.42,1.44,1.38,1.39,3.12,3.12,3.09
78.95,1.67,-1.38,1.67,-1.38,1.39,1.33,1.34,3.07,3.07,3.05
79.74,1.67,-1.33,1.67,-1.33,1.33,1.29,1.28,3.01,3.00,3.00
80.54,1.66,-1.29,1.65,-1.30,1.27,1.24,1.23,2.93,2.92,2.95
81.35,1.65,-1.25,1.66,-1.25,1.19,1.19,1.18,2.85,2.85,2.90
82.16,1.66,-1.19,1.70,-1.16,1.11,1.15,1.13,2.78,2.81,2.85
82.98,1.77,-1.04,1.77,-1.04,1.04,1.11,1.08,2.81,2.81,2.81
83.81,1.87,-0.89,1.85,-0.92,0.96,1.06,1.04,2.83,2.81,2.76
84.65,1.90,-0.81,1.90,-0.82,0.88,1.02,0.99,2.78,2.78,2.71
85.50,1.89,-0.78,1.90,-0.77,0.81,0.98,0.94,2.70,2.71,2.67
86.35,1.87,-0.75,1.88,-0.74,0.74,0.94,0.89,2.61,2.62,2.62
87.22,1.87,-0.70,1.87,-0.70,0.68,0.89,0.84,2.55,2.55,2.57
88.09,1.87,-0.65,1.87,-0.65,0.63,0.85,0.79,2.50,2.50,2.52
88.97,1.87,-0.59,1.87,-0.59,0.58,0.81,0.75,2.45,2.45,2.46
89.86,1.87,-0.54,1.88,-0.54,0.53,0.77,0.70,2.40,2.41,2.41
90.76,1.88,-0.48,1.88,-0.48,0.48,0.73,0.65,2.36,2.36,2.36
91.66,1.88,-0.43,1.88,-0.43,0.42,0.70,0.61,2.30,2.30,2.31
92.58,1.88,-0.37,1.88,-0.37,0.37,0.66,0.56,2.25,2.25,2.25
93.51,1.88,-0.32,1.89,-0.32,0.32,0.62,0.52,2.21,2.21,2.20
94.44,1.88,-0.28,1.89,-0.27,0.29,0.58,0.47,2.17,2.18,2.16
95.39,1.88,-0.23,1.88,-0.24,0.27,0.55,0.43,2.15,2.14,2.11
96.34,1.85,-0.21,1.85,-0.22,0.25,0.51,0.38,2.11,2.10,2.06
97.30,1.78,-0.23,1.79,-0.23,0.24,0.47,0.34,2.02,2.03,2.01
98.28,1.72,-0.24,1.72,-0.25,0.23,0.44,0.29,1.96,1.95,1.96
99.26,1.64,-0.28,1.66,-0.26,0.22,0.40,0.25,1.87,1.88,1.92
100.25,1.62,-0.25,1.62,-0.25,0.22,0.37,0.20,1.84,1.84,1.87
101.25,1.60,-0.22,1.60,-0.22,0.20,0.33,0.16,1.81,1.81,1.82
102.27,1.59,-0.18,1.59,-0.18,0.18,0.30,0.12,1.78,1.78,1.77
103.29,1.58,-0.14,1.58,-0.15,0.15,0.26,0.08,1.74,1.74,1.72
104.32,1.56,-0.12,1.56,-0.12,0.12,0.23,0.03,1.69,1.69,1.68
105.37,1.54,-0.09,1.54,-0.09,0.09,0.20,-0.01,1.64,1.63,1.63
106.42,1.51,-0.07,1.52,-0.06,0.07,0.16,-0.05,1.58,1.58,1.58
107.48,1.49,-0.03,1.50,-0.03,0.05,0.13,-0.09,1.54,1.55,1.52
108.56,1.46,-0.01,1.47,-0.00,0.04,0.10,-0.12,1.50,1.51,1.47
109.64,1.44,0.02,1.41,-0.01,0.02,0.07,-0.16,1.47,1.44,1.42
110.74,1.35,-0.01,1.35,-0.02,0.00,0.04,-0.20,1.36,1.35,1.36
111.85,1.26,-0.06,1.30,-0.01,-0.02,0.00,-0.23,1.24,1.28,1.32
112.97,1.28,0.02,1.28,0.01,-0.06,-0.03,-0.26,1.22,1.21,1.26
114.10,1.29,0.08,1.28,0.07,-0.10,-0.06,-0.30,1.19,1.18,1.21
115.24,1.29,0.13,1.29,0.13,-0.14,-0.09,-0.33,1.16,1.15,1.16
116.39,1.29,0.18,1.31,0.19,-0.17,-0.12,-0.36,1.12,1.14,1.11
117.55,1.31,0.24,1.33,0.25,-0.20,-0.15,-0.38,1.12,1.13,1.07
118.73,1.35,0.32,1.32,0.29,-0.22,-0.18,-0.41,1.13,1.10,1.03
119.92,1.29,0.29,1.28,0.28,-0.24,-0.20,-0.43,1.06,1.05,1.00
121.12,1.20,0.24,1.20,0.24,-0.25,-0.23,-0.45,0.96,0.96,0.96
122.33,1.11,0.18,1.13,0.20,-0.26,-0.26,-0.47,0.86,0.88,0.93
123.55,1.08,0.18,1.11,0.20,-0.27,-0.29,-0.49,0.82,0.84,0.90
124.79,1.13,0.26,1.11,0.24,-0.28,-0.31,-0.50,0.85,0.83,0.87
126.03,1.14,0.30,1.14,0.29,-0.30,-0.34,-0.52,0.84,0.84,0.84
127.29,1.15,0.33,1.16,0.34,-0.32,-0.37,-0.53,0.83,0.83,0.82
128.57,1.16,0.38,1.17,0.38,-0.35,-0.39,-0.54,0.81,0.82,0.78
129.85,1.16,0.41,1.17,0.41,-0.38,-0.42,-0.54,0.79,0.79,0.75
131.15,1.16,0.44,1.15,0.43,-0.39,-0.44,-0.55,0.77,0.76,0.72
132.46,1.10,0.41,1.10,0.41,-0.40,-0.46,-0.55,0.70,0.70,0.69
133.79,1.05,0.39,1.05,0.39,-0.40,-0.49,-0.55,0.65,0.65,0.66
135.12,0.98,0.35,1.01,0.38,-0.39,-0.51,-0.55,0.59,0.62,0.63
136.48,0.98,0.37,0.98,0.38,-0.39,-0.53,-0.55,0.60,0.59,0.61
137.84,0.98,0.41,0.94,0.36,-0.38,-0.55,-0.55,0.60,0.55,0.57
139.22,0.89,0.35,0.93,0.38,-0.38,-0.57,-0.55,0.52,0.55,0.54
140.61,0.85,0.34,0.90,0.38,-0.38,-0.59,-0.54,0.48,0.52,0.51
142.02,0.94,0.45,0.87,0.38,-0.37,-0.61,-0.53,0.57,0.49,0.49
143.44,0.83,0.37,0.85,0.39,-0.37,-0.63,-0.53,0.46,0.48,0.46
144.87,0.79,0.37,0.83,0.40,-0.37,-0.64,-0.52,0.42,0.46,0.42
146.32,0.79,0.41,0.78,0.39,-0.38,-0.66,-0.51,0.41,0.40,0.38
147.78,0.77,0.42,0.74,0.39,-0.41,-0.67,-0.50,0.37,0.33,0.35
149.26,0.67,0.37,0.69,0.39,-0.44,-0.69,-0.49,0.23,0.25,0.30
150.75,0.63,0.39,0.66,0.42,-0.49,-0.70,-0.48,0.14,0.17,0.24
152.26,0.67,0.50,0.66,0.48,-0.54,-0.71,-0.47,0.14,0.12,0.17
153.78,0.69,0.59,0.71,0.61,-0.58,-0.72,-0.46,0.12,0.13,0.10
155.32,0.74,0.71,0.75,0.72,-0.63,-0.73,-0.44,0.12,0.12,0.03
156.88,0.77,0.82,0.72,0.76,-0.68,-0.74,-0.43,0.09,0.03,-0.05
158.44,0.64,0.77,0.63,0.76,-0.74,-0.75,-0.42,-0.10,-0.11,-0.13
160.03,0.47,0.68,0.52,0.73,-0.79,-0.75,-0.41,-0.32,-0.27,-0.21
161.63,0.43,0.71,0.46,0.73,-0.83,-0.76,-0.40,-0.39,-0.37,-0.28
163.24,0.46,0.80,0.47,0.80,-0.84,-0.76,-0.39,-0.37,-0.37,-0.34
164.88,0.52,0.91,0.51,0.90,-0.84,-0.77,-0.38,-0.31,-0.33,-0.39
166.53,0.52,0.96,0.50,0.93,-0.84,-0.77,-0.37,-0.31,-0.34,-0.44
168.19,0.43,0.91,0.42,0.89,-0.84,-0.77,-0.36,-0.41,-0.43,-0.48
169.87,0.29,0.81,0.32,0.83,-0.85,-0.77,-0.35,-0.56,-0.53,-0.52
171.57,0.20,0.74,0.24,0.78,-0.84,-0.77,-0.34,-0.64,-0.60,-0.54
173.29,0.23,0.78,0.22,0.77,-0.82,-0.77,-0.33,-0.59,-0.60,-0.55
175.02,0.24,0.80,0.24,0.80,-0.79,-0.76,-0.32,-0.54,-0.55,-0.56
176.77,0.24,0.81,0.25,0.82,-0.76,-0.76,-0.31,-0.51,-0.51,-0.57
178.54,0.24,0.82,0.22,0.79,-0.75,-0.75,-0.30,-0.50,-0.53,-0.58
180.32,0.18,0.75,0.17,0.74,-0.75,-0.74,-0.29,-0.57,-0.58,-0.57
182.13,0.09,0.65,0.12,0.69,-0.76,-0.74,-0.29,-0.66,-0.64,-0.56
183.95,0.10,0.67,0.13,0.69,-0.76,-0.73,-0.28,-0.66,-0.63,-0.57
185.79,0.16,0.73,0.18,0.75,-0.75,-0.72,-0.27,-0.59,-0.58,-0.57
187.65,0.27,0.86,0.21,0.80,-0.74,-0.70,-0.27,-0.46,-0.52,-0.59
189.52,0.21,0.81,0.22,0.82,-0.73,-0.69,-0.26,-0.52,-0.51,-0.60
191.42,0.14,0.76,0.17,0.79,-0.74,-0.68,-0.25,-0.60,-0.57,-0.62
193.33,0.12,0.76,0.08,0.72,-0.76,-0.66,-0.25,-0.64,-0.67,-0.64
195.27,0.01,0.67,0.03,0.69,-0.77,-0.65,-0.24,-0.76,-0.75,-0.66
197.22,-0.02,0.66,0.02,0.70,-0.78,-0.63,-0.24,-0.79,-0.75,-0.68
199.19,0.04,0.74,0.05,0.75,-0.77,-0.62,-0.23,-0.72,-0.71,-0.70
201.18,0.13,0.85,0.10,0.82,-0.76,-0.60,-0.23,-0.62,-0.65,-0.72
203.19,0.13,0.87,0.10,0.84,-0.75,-0.58,-0.22,-0.62,-0.65,-0.74
205.23,0.03,0.79,0.05,0.80,-0.75,-0.56,-0.22,-0.72,-0.70,-0.76
207.28,-0.07,0.70,-0.05,0.72,-0.74,-0.54,-0.22,-0.81,-0.79,-0.77
209.35,-0.13,0.66,-0.14,0.65,-0.72,-0.52,-0.21,-0.84,-0.86,-0.79
211.44,-0.21,0.61,-0.17,0.64,-0.68,-0.50,-0.21,-0.88,-0.84,-0.82
213.56,-0.19,0.64,-0.18,0.65,-0.63,-0.48,-0.20,-0.82,-0.81,-0.83
215.69,-0.15,0.69,-0.21,0.63,-0.59,-0.45,-0.20,-0.74,-0.80,-0.84
217.85,-0.28,0.57,-0.28,0.57,-0.56,-0.43,-0.20,-0.83,-0.84,-0.85
220.03,-0.39,0.47,-0.38,0.49,-0.52,-0.41,-0.19,-0.91,-0.90,-0.86
222.23,-0.49,0.40,-0.42,0.45,-0.48,-0.38,-0.19,-0.97,-0.90,-0.89
224.45,-0.43,0.45,-0.43,0.45,-0.44,-0.36,-0.18,-0.86,-0.87,-0.88
226.70,-0.36,0.52,-0.44,0.44,-0.38,-0.33,-0.18,-0.74,-0.82,-0.88
228.96,-0.53,0.34,-0.48,0.38,-0.34,-0.31,-0.17,-0.87,-0.82,-0.87
231.25,-0.56,0.30,-0.57,0.28,-0.30,-0.28,-0.17,-0.86,-0.88,-0.86
233.57,-0.67,0.18,-0.65,0.20,-0.27,-0.26,-0.16,-0.94,-0.92,-0.85
235.90,-0.67,0.17,-0.65,0.19,-0.24,-0.23,-0.16,-0.91,-0.89,-0.84
238.26,-0.62,0.21,-0.63,0.19,-0.21,-0.20,-0.15,-0.82,-0.84,-0.83
240.64,-0.58,0.22,-0.59,0.21,-0.17,-0.18,-0.14,-0.75,-0.76,-0.80
243.05,-0.57,0.20,-0.57,0.20,-0.14,-0.15,-0.14,-0.70,-0.71,-0.77
245.48,-0.60,0.15,-0.60,0.15,-0.11,-0.12,-0.13,-0.70,-0.71,-0.75
247.93,-0.63,0.09,-0.63,0.08,-0.08,-0.09,-0.12,-0.71,-0.72,-0.72
250.41,-0.69,0.01,-0.66,0.03,-0.06,-0.07,-0.11,-0.75,-0.72,-0.70
252.92,-0.68,-0.01,-0.68,-0.01,-0.03,-0.04,-0.10,-0.71,-0.71,-0.67
255.45,-0.67,-0.02,-0.67,-0.03,-0.01,-0.01,-0.09,-0.67,-0.68,-0.65
258.00,-0.66,-0.03,-0.66,-0.04,0.02,0.02,-0.08,-0.64,-0.65,-0.63
260.58,-0.66,-0.05,-0.65,-0.05,0.05,0.04,-0.07,-0.61,-0.60,-0.61
263.19,-0.65,-0.07,-0.62,-0.03,0.07,0.07,-0.05,-0.57,-0.54,-0.58
265.82,-0.59,-0.03,-0.60,-0.05,0.10,0.10,-0.04,-0.49,-0.50,-0.56
268.48,-0.58,-0.04,-0.63,-0.09,0.13,0.13,-0.03,-0.45,-0.50,-0.54
271.16,-0.71,-0.20,-0.68,-0.17,0.17,0.16,-0.01,-0.54,-0.51,-0.51
273.87,-0.77,-0.28,-0.74,-0.26,0.21,0.18,0.00,-0.55,-0.53,-0.49
276.61,-0.77,-0.31,-0.76,-0.30,0.27,0.21,0.02,-0.50,-0.49,-0.46
279.38,-0.75,-0.32,-0.74,-0.32,0.32,0.24,0.03,-0.42,-0.42,-0.43
282.17,-0.72,-0.31,-0.75,-0.35,0.38,0.27,0.05,-0.34,-0.37,-0.41
284.99,-0.78,-0.41,-0.78,-0.41,0.43,0.30,0.07,-0.35,-0.35,-0.37
287.84,-0.85,-0.50,-0.81,-0.47,0.46,0.32,0.08,-0.38,-0.35,-0.35
290.72,-0.84,-0.52,-0.84,-0.52,0.50,0.35,0.10,-0.34,-0.34,-0.32
293.63,-0.83,-0.54,-0.83,-0.55,0.52,0.38,0.12,-0.30,-0.31,-0.29
296.57,-0.82,-0.56,-0.82,-0.56,0.55,0.40,0.14,-0.26,-0.26,-0.26
299.53,-0.81,-0.58,-0.80,-0.57,0.58,0.43,0.16,-0.23,-0.22,-0.23
302.53,-0.79,-0.58,-0.79,-0.59,0.60,0.46,0.18,-0.19,-0.19,-0.21
305.55,-0.78,-0.61,-0.78,-0.61,0.62,0.48,0.20,-0.16,-0.16,-0.17
308.61,-0.77,-0.62,-0.77,-0.62,0.63,0.51,0.22,-0.14,-0.14,-0.15
311.69,-0.77,-0.65,-0.76,-0.65,0.64,0.54,0.24,-0.12,-0.12,-0.12
314.81,-0.76,-0.66,-0.76,-0.66,0.66,0.56,0.26,-0.10,-0.10,-0.10
317.96,-0.76,-0.68,-0.76,-0.68,0.67,0.59,0.28,-0.09,-0.09,-0.08
321.14,-0.76,-0.69,-0.76,-0.69,0.69,0.61,0.30,-0.07,-0.07,-0.07
324.35,-0.76,-0.71,-0.76,-0.71,0.70,0.64,0.32,-0.05,-0.05,-0.05
327.59,-0.76,-0.72,-0.76,-0.72,0.72,0.66,0.34,-0.03,-0.04,-0.04
330.87,-0.76,-0.73,-0.76,-0.73,0.74,0.69,0.37,-0.01,-0.01,-0.03
334.18,-0.77,-0.76,-0.76,-0.75,0.77,0.71,0.39,0.00,0.01,-0.01
337.52,-0.77,-0.77,-0.79,-0.79,0.80,0.74,0.41,0.03,0.01,0.00
340.90,-0.81,-0.82,-0.82,-0.83,0.83,0.76,0.44,0.02,0.01,0.01
344.30,-0.90,-0.92,-0.84,-0.87,0.86,0.78,0.46,-0.03,0.02,0.02
347.75,-0.85,-0.87,-0.88,-0.90,0.90,0.81,0.49,0.05,0.02,0.02
351.23,-0.89,-0.92,-0.90,-0.93,0.93,0.83,0.51,0.04,0.02,0.03
354.74,-0.95,-0.97,-0.92,-0.95,0.95,0.85,0.54,0.00,0.03,0.02
358.28,-0.96,-0.99,-0.95,-0.99,0.96,0.87,0.57,0.01,0.01,0.03
361.87,-0.96,-0.99,-0.96,-0.99,0.97,0.90,0.59,0.01,0.01,0.03
365.49,-0.95,-0.99,-0.95,-0.99,0.97,0.92,0.62,0.02,0.02,0.04
369.14,-0.94,-0.97,-0.94,-0.97,0.97,0.94,0.65,0.04,0.03,0.03
372.83,-0.94,-0.97,-0.92,-0.95,0.97,0.96,0.67,0.04,0.06,0.03
376.56,-0.91,-0.93,-0.92,-0.95,0.98,0.98,0.70,0.07,0.06,0.02
380.33,-0.91,-0.94,-0.94,-0.97,0.99,1.00,0.73,0.08,0.05,0.03
384.13,-1.00,-1.03,-0.96,-0.99,1.00,1.02,0.76,0.01,0.04,0.03
387.97,-1.01,-1.03,-1.00,-1.02,1.03,1.04,0.79,0.02,0.03,0.02
391.85,-1.01,-1.02,-1.04,-1.06,1.05,1.06,0.82,0.04,0.01,0.01
395.77,-1.07,-1.09,-1.07,-1.09,1.07,1.07,0.85,0.01,0.00,0.02
399.73,-1.13,-1.14,-1.10,-1.11,1.09,1.09,0.88,-0.04,-0.01,0.01
403.72,-1.12,-1.13,-1.12,-1.13,1.10,1.11,0.91,-0.02,-0.02,0.01
407.76,-1.11,-1.10,-1.12,-1.12,1.10,1.13,0.94,-0.00,-0.02,-0.01
411.84,-1.12,-1.11,-1.11,-1.11,1.11,1.14,0.97,-0.01,-0.00,-0.01
415.96,-1.12,-1.11,-1.10,-1.09,1.12,1.16,1.00,0.00,0.02,-0.01
420.12,-1.10,-1.09,-1.10,-1.09,1.12,1.17,1.02,0.03,0.03,-0.01
424.32,-1.08,-1.07,-1.11,-1.10,1.13,1.19,1.05,0.06,0.02,-0.01
428.56,-1.14,-1.14,-1.13,-1.13,1.14,1.20,1.08,0.00,0.01,0.00
432.85,-1.18,-1.19,-1.15,-1.17,1.15,1.21,1.11,-0.03,-0.01,0.01
437.18,-1.16,-1.18,-1.16,-1.19,1.15,1.23,1.14,-0.01,-0.01,0.02
441.55,-1.13,-1.19,-1.13,-1.18,1.15,1.24,1.17,0.03,0.03,0.06
445.96,-1.08,-1.17,-1.08,-1.17,1.16,1.25,1.19,0.08,0.08,0.09
450.42,-1.03,-1.15,-1.02,-1.15,1.16,1.26,1.22,0.13,0.14,0.12
454.93,-0.97,-1.14,-0.95,-1.12,1.16,1.27,1.24,0.19,0.20,0.17
459.48,-0.89,-1.10,-0.91,-1.12,1.16,1.28,1.26,0.27,0.25,0.21
464.07,-0.86,-1.12,-0.87,-1.14,1.16,1.29,1.28,0.30,0.28,0.26
468.71,-0.87,-1.19,-0.85,-1.16,1.16,1.30,1.30,0.29,0.31,0.32
473.40,-0.83,-1.19,-0.82,-1.19,1.16,1.31,1.32,0.34,0.34,0.36
478.13,-0.78,-1.20,-0.78,-1.20,1.17,1.32,1.34,0.39,0.39,0.42
482.91,-0.73,-1.19,-0.73,-1.19,1.18,1.33,1.36,0.46,0.45,0.46
487.74,-0.69,-1.19,-0.68,-1.19,1.20,1.33,1.37,0.51,0.51,0.50
492.62,-0.65,-1.20,-0.64,-1.19,1.21,1.34,1.38,0.56,0.57,0.55
497.55,-0.62,-1.19,-0.62,-1.20,1.22,1.34,1.39,0.61,0.60,0.57
