frequency,raw,error,smoothed,error_smoothed,equalization,parametric_eq,fixed_band_eq,equalized_raw,equalized_smoothed,target
20.00,7.64,-0.01,7.64,-0.02,0.01,-0.46,-0.56,7.65,7.65,7.65
20.20,7.66,0.01,7.67,0.01,-0.01,-0.47,-0.58,7.65,7.65,7.65
20.40,7.69,0.04,7.69,0.04,-0.04,-0.48,-0.59,7.65,7.65,7.65
20.61,7.72,0.07,7.72,0.07,-0.06,-0.49,-0.61,7.66,7.66,7.65
20.81,7.74,0.10,7.75,0.10,-0.09,-0.50,-0.62,7.65,7.66,7.64
21.02,7.77,0.13,7.77,0.12,-0.12,-0.51,-0.64,7.66,7.65,7.64
21.23,7.79,0.15,7.79,0.14,-0.14,-0.52,-0.65,7.65,7.65,7.64
21.44,7.81,0.16,7.82,0.17,-0.17,-0.53,-0.67,7.64,7.64,7.65
21.66,7.84,0.20,7.84,0.19,-0.20,-0.54,-0.68,7.64,7.64,7.64
21.87,7.87,0.23,7.87,0.23,-0.23,-0.56,-0.70,7.64,7.64,7.64
22.09,7.90,0.27,7.90,0.27,-0.26,-0.57,-0.72,7.64,7.64,7.63
22.31,7.93,0.30,7.93,0.30,-0.30,-0.58,-0.73,7.63,7.63,7.63
22.54,7.96,0.34,7.96,0.33,-0.33,-0.59,-0.75,7.63,7.63,7.62
22.76,7.99,0.37,7.99,0.37,-0.37,-0.60,-0.77,7.62,7.62,7.62
22.99,8.02,0.41,8.02,0.41,-0.41,-0.62,-0.79,7.61,7.61,7.61
23.22,8.05,0.45,8.05,0.44,-0.44,-0.63,-0.81,7.61,7.61,7.60
23.45,8.08,0.48,8.08,0.48,-0.48,-0.64,-0.83,7.60,7.60,7.60
23.69,8.11,0.52,8.11,0.52,-0.51,-0.65,-0.85,7.60,7.60,7.59
23.92,8.13,0.55,8.13,0.55,-0.54,-0.67,-0.87,7.59,7.59,7.58
24.16,8.16,0.58,8.16,0.58,-0.57,-0.68,-0.89,7.59,7.59,7.58
24.40,8.18,0.60,8.18,0.60,-0.61,-0.70,-0.91,7.58,7.58,7.58
24.65,8.21,0.63,8.21,0.63,-0.64,-0.71,-0.93,7.57,7.58,7.58
24.89,8.24,0.66,8.24,0.66,-0.67,-0.73,-0.96,7.57,7.57,7.58
25.14,8.27,0.70,8.27,0.70,-0.70,-0.74,-0.98,7.57,7.57,7.57
25.39,8.30,0.74,8.30,0.73,-0.73,-0.76,-1.00,7.57,7.57,7.56
25.65,8.33,0.77,8.33,0.77,-0.76,-0.77,-1.02,7.57,7.57,7.56
25.91,8.36,0.80,8.36,0.79,-0.79,-0.79,-1.05,7.57,7.57,7.56
26.16,8.39,0.82,8.39,0.82,-0.82,-0.81,-1.07,7.57,7.57,7.57
26.43,8.42,0.85,8.42,0.85,-0.85,-0.82,-1.09,7.57,7.57,7.57
26.69,8.45,0.88,8.45,0.88,-0.88,-0.84,-1.11,7.57,7.57,7.57
26.96,8.48,0.92,8.48,0.91,-0.91,-0.86,-1.14,7.57,7.57,7.56
27.23,8.51,0.95,8.51,0.95,-0.94,-0.88,-1.16,7.57,7.57,7.56
27.50,8.54,0.98,8.54,0.98,-0.97,-0.89,-1.18,7.57,7.57,7.56
27.77,8.57,1.00,8.57,1.00,-1.01,-0.91,-1.21,7.57,7.56,7.57
28.05,8.60,1.04,8.60,1.04,-1.04,-0.93,-1.23,7.56,7.56,7.56
28.33,8.62,1.07,8.63,1.07,-1.07,-0.95,-1.25,7.55,7.56,7.55
28.62,8.66,1.12,8.66,1.11,-1.10,-0.97,-1.27,7.56,7.55,7.54
28.90,8.68,1.13,8.68,1.13,-1.14,-0.99,-1.29,7.55,7.55,7.55
29.19,8.71,1.17,8.71,1.17,-1.17,-1.01,-1.31,7.54,7.54,7.54
29.48,8.73,1.20,8.74,1.20,-1.20,-1.03,-1.33,7.53,7.53,7.53
29.78,8.77,1.25,8.76,1.24,-1.24,-1.06,-1.35,7.53,7.53,7.52
30.08,8.79,1.27,8.79,1.27,-1.27,-1.08,-1.37,7.52,7.52,7.52
30.38,8.81,1.30,8.82,1.30,-1.30,-1.10,-1.39,7.51,7.52,7.51
30.68,8.84,1.34,8.84,1.33,-1.33,-1.12,-1.41,7.51,7.51,7.50
30.99,8.87,1.37,8.87,1.36,-1.36,-1.15,-1.42,7.51,7.50,7.50
31.30,8.89,1.39,8.90,1.39,-1.39,-1.17,-1.44,7.50,7.50,7.50
31.61,8.92,1.42,8.92,1.42,-1.42,-1.20,-1.46,7.50,7.50,7.50
31.93,8.95,1.46,8.95,1.45,-1.45,-1.22,-1.47,7.50,7.50,7.49
32.24,8.97,1.47,8.98,1.48,-1.48,-1.25,-1.49,7.50,7.50,7.50
32.57,9.00,1.51,9.00,1.51,-1.50,-1.28,-1.50,7.50,7.50,7.49
32.89,9.03,1.54,9.03,1.53,-1.53,-1.30,-1.52,7.50,7.49,7.49
33.22,9.05,1.56,9.05,1.56,-1.56,-1.33,-1.53,7.49,7.49,7.49
33.55,9.07,1.59,9.07,1.59,-1.60,-1.36,-1.54,7.48,7.48,7.48
33.89,9.10,1.63,9.10,1.63,-1.63,-1.39,-1.56,7.47,7.47,7.47
34.23,9.12,1.67,9.13,1.67,-1.66,-1.41,-1.57,7.46,7.46,7.45
34.57,9.15,1.70,9.15,1.70,-1.69,-1.44,-1.58,7.46,7.45,7.45
34.92,9.17,1.74,9.17,1.73,-1.73,-1.47,-1.60,7.44,7.44,7.43
35.27,9.18,1.76,9.19,1.76,-1.77,-1.51,-1.61,7.41,7.42,7.42
35.62,9.20,1.81,9.20,1.80,-1.81,-1.54,-1.63,7.39,7.39,7.39
35.97,9.21,1.84,9.21,1.84,-1.85,-1.57,-1.64,7.36,7.37,7.37
36.33,9.23,1.89,9.23,1.89,-1.89,-1.60,-1.66,7.34,7.34,7.34
36.70,9.24,1.93,9.24,1.93,-1.93,-1.63,-1.68,7.31,7.32,7.31
37.06,9.26,1.98,9.26,1.97,-1.97,-1.67,-1.69,7.29,7.29,7.28
37.43,9.27,2.02,9.27,2.02,-2.02,-1.70,-1.71,7.26,7.26,7.25
37.81,9.28,2.06,9.28,2.06,-2.06,-1.74,-1.73,7.22,7.22,7.22
38.19,9.29,2.11,9.29,2.10,-2.10,-1.77,-1.75,7.19,7.19,7.18
38.57,9.30,2.14,9.30,2.14,-2.14,-1.81,-1.77,7.16,7.16,7.16
38.95,9.31,2.18,9.31,2.18,-2.18,-1.85,-1.80,7.13,7.13,7.13
39.34,9.32,2.23,9.32,2.23,-2.22,-1.88,-1.82,7.10,7.10,7.09
39.74,9.33,2.27,9.33,2.26,-2.26,-1.92,-1.85,7.07,7.07,7.06
40.14,9.34,2.30,9.34,2.29,-2.29,-1.96,-1.87,7.05,7.04,7.04
40.54,9.33,2.31,9.34,2.32,-2.32,-2.00,-1.90,7.01,7.02,7.02
40.94,9.35,2.36,9.35,2.35,-2.36,-2.04,-1.93,7.00,6.99,6.99
41.35,9.35,2.39,9.35,2.39,-2.39,-2.08,-1.96,6.97,6.97,6.96
41.76,9.35,2.42,9.36,2.41,-2.41,-2.12,-2.00,6.94,6.94,6.93
42.18,9.36,2.44,9.36,2.44,-2.44,-2.16,-2.03,6.92,6.92,6.92
42.60,9.35,2.46,9.36,2.46,-2.46,-2.20,-2.07,6.89,6.89,6.89
43.03,9.36,2.50,9.36,2.49,-2.49,-2.24,-2.11,6.88,6.87,6.86
43.46,9.35,2.51,9.35,2.51,-2.51,-2.28,-2.15,6.84,6.85,6.84
43.90,9.35,2.53,9.35,2.53,-2.53,-2.33,-2.19,6.82,6.82,6.82
44.33,9.34,2.56,9.34,2.55,-2.55,-2.37,-2.23,6.79,6.79,6.78
44.78,9.33,2.57,9.34,2.57,-2.57,-2.41,-2.28,6.76,6.76,6.76
45.23,9.33,2.58,9.33,2.59,-2.60,-2.46,-2.33,6.74,6.74,6.75
45.68,9.33,2.62,9.33,2.61,-2.62,-2.50,-2.38,6.71,6.71,6.71
46.13,9.32,2.66,9.32,2.65,-2.65,-2.55,-2.43,6.68,6.68,6.66
46.60,9.31,2.67,9.32,2.68,-2.67,-2.59,-2.48,6.64,6.64,6.64
47.06,9.31,2.71,9.31,2.71,-2.70,-2.64,-2.53,6.61,6.61,6.60
47.53,9.30,2.73,9.30,2.73,-2.73,-2.68,-2.59,6.57,6.57,6.57
48.01,9.29,2.78,9.29,2.77,-2.77,-2.73,-2.65,6.53,6.52,6.51
48.49,9.27,2.79,9.27,2.79,-2.80,-2.77,-2.70,6.47,6.48,6.48
48.97,9.26,2.83,9.26,2.83,-2.83,-2.82,-2.76,6.43,6.43,6.43
49.46,9.25,2.86,9.25,2.86,-2.87,-2.86,-2.83,6.38,6.38,6.39
49.96,9.24,2.92,9.24,2.91,-2.90,-2.90,-2.89,6.34,6.34,6.32
50.46,9.22,2.94,9.22,2.94,-2.93,-2.95,-2.95,6.29,6.29,6.28
50.96,9.20,2.97,9.20,2.97,-2.96,-2.99,-3.01,6.24,6.24,6.23
51.47,9.19,3.00,9.19,3.00,-2.99,-3.03,-3.08,6.20,6.20,6.19
51.99,9.17,3.03,9.17,3.03,-3.02,-3.08,-3.14,6.15,6.15,6.14
52.51,9.16,3.06,9.16,3.05,-3.05,-3.12,-3.20,6.11,6.11,6.10
53.03,9.13,3.06,9.14,3.07,-3.07,-3.16,-3.27,6.06,6.06,6.07
53.56,9.11,3.09,9.11,3.09,-3.10,-3.20,-3.33,6.01,6.01,6.02
54.10,9.09,3.13,9.09,3.12,-3.12,-3.24,-3.39,5.97,5.97,5.96
54.64,9.06,3.14,9.07,3.15,-3.14,-3.28,-3.45,5.92,5.92,5.92
55.18,9.04,3.18,9.04,3.17,-3.16,-3.32,-3.51,5.88,5.87,5.86
55.74,9.01,3.19,9.01,3.18,-3.18,-3.35,-3.56,5.83,5.83,5.82
56.29,8.98,3.20,8.98,3.20,-3.20,-3.39,-3.62,5.78,5.78,5.78
56.86,8.95,3.21,8.95,3.22,-3.21,-3.42,-3.67,5.74,5.74,5.74
57.42,8.92,3.24,8.92,3.23,-3.22,-3.45,-3.72,5.70,5.70,5.68
58.00,8.89,3.25,8.89,3.24,-3.23,-3.48,-3.76,5.66,5.66,5.64
58.58,8.85,3.24,8.85,3.24,-3.24,-3.51,-3.80,5.61,5.61,5.61
59.16,8.81,3.24,8.81,3.24,-3.25,-3.54,-3.83,5.56,5.56,5.57
59.76,8.78,3.25,8.78,3.25,-3.27,-3.56,-3.86,5.51,5.51,5.53
60.35,8.74,3.28,8.74,3.27,-3.29,-3.59,-3.89,5.45,5.46,5.46
60.96,8.71,3.30,8.71,3.30,-3.31,-3.61,-3.91,5.40,5.40,5.41
61.57,8.67,3.34,8.67,3.33,-3.33,-3.63,-3.92,5.34,5.34,5.33
62.18,8.63,3.36,8.64,3.36,-3.35,-3.64,-3.93,5.28,5.28,5.27
62.80,8.60,3.39,8.60,3.39,-3.38,-3.66,-3.94,5.22,5.22,5.21
63.43,8.56,3.42,8.56,3.41,-3.40,-3.67,-3.94,5.16,5.16,5.14
64.07,8.51,3.42,8.52,3.42,-3.41,-3.68,-3.93,5.10,5.10,5.09
64.71,8.47,3.43,8.47,3.43,-3.43,-3.69,-3.92,5.04,5.04,5.04
65.35,8.42,3.43,8.42,3.43,-3.44,-3.69,-3.90,4.98,4.99,4.99
66.01,8.38,3.45,8.38,3.44,-3.44,-3.70,-3.88,4.94,4.94,4.93
66.67,8.33,3.44,8.33,3.45,-3.45,-3.70,-3.85,4.88,4.88,4.89
67.33,8.28,3.46,8.28,3.45,-3.45,-3.70,-3.82,4.83,4.83,4.82
68.01,8.23,3.46,8.23,3.46,-3.46,-3.69,-3.79,4.77,4.77,4.77
68.69,8.18,3.47,8.18,3.47,-3.46,-3.68,-3.75,4.72,4.72,4.71
69.37,8.13,3.47,8.13,3.47,-3.47,-3.67,-3.71,4.66,4.66,4.66
70.07,8.08,3.47,8.08,3.47,-3.48,-3.66,-3.66,4.61,4.61,4.61
70.77,8.03,3.48,8.03,3.48,-3.48,-3.65,-3.61,4.55,4.55,4.55
71.48,7.98,3.49,7.98,3.48,-3.49,-3.63,-3.57,4.50,4.49,4.49
72.19,7.91,3.49,7.92,3.49,-3.49,-3.61,-3.51,4.42,4.43,4.42
72.91,7.86,3.49,7.86,3.49,-3.49,-3.59,-3.46,4.37,4.37,4.37
73.64,7.80,3.50,7.80,3.50,-3.49,-3.57,-3.41,4.31,4.31,4.30
74.38,7.74,3.50,7.74,3.49,-3.49,-3.55,-3.36,4.25,4.25,4.24
75.12,7.68,3.49,7.68,3.48,-3.48,-3.52,-3.30,4.20,4.20,4.19
75.87,7.61,3.46,7.61,3.47,-3.47,-3.49,-3.25,4.14,4.14,4.15
76.63,7.55,3.46,7.55,3.46,-3.46,-3.46,-3.20,4.09,4.09,4.09
77.40,7.48,3.45,7.48,3.45,-3.45,-3.43,-3.14,4.04,4.04,4.03
78.17,7.42,3.45,7.42,3.43,-3.43,-3.39,-3.09,3.99,3.99,3.97
78.95,7.34,3.40,7.35,3.41,-3.41,-3.36,-3.04,3.93,3.93,3.94
79.74,7.28,3.40,7.28,3.40,-3.39,-3.32,-2.99,3.89,3.88,3.88
80.54,7.20,3.38,7.21,3.37,-3.38,-3.28,-2.94,3.82,3.83,3.82
81.35,7.14,3.36,7.14,3.36,-3.36,-3.25,-2.89,3.78,3.78,3.78
82.16,7.06,3.33,7.06,3.33,-3.34,-3.20,-2.85,3.72,3.72,3.73
82.98,6.99,3.32,6.99,3.32,-3.32,-3.16,-2.80,3.67,3.68,3.67
83.81,6.92,3.30,6.92,3.30,-3.29,-3.12,-2.76,3.63,3.62,3.62
84.65,6.85,3.29,6.85,3.28,-3.27,-3.08,-2.72,3.58,3.57,3.56
85.50,6.76,3.25,6.77,3.25,-3.25,-3.04,-2.68,3.51,3.52,3.51
86.35,6.69,3.23,6.69,3.23,-3.23,-2.99,-2.65,3.47,3.46,3.46
87.22,6.60,3.19,6.61,3.19,-3.20,-2.95,-2.61,3.40,3.41,3.41
88.09,6.53,3.18,6.53,3.17,-3.17,-2.90,-2.58,3.36,3.35,3.35
88.97,6.44,3.14,6.45,3.15,-3.15,-2.86,-2.55,3.30,3.30,3.30
89.86,6.37,3.13,6.37,3.12,-3.12,-2.81,-2.52,3.25,3.25,3.24
90.76,6.28,3.10,6.28,3.09,-3.09,-2.76,-2.50,3.19,3.19,3.18
91.66,6.19,3.06,6.20,3.07,-3.06,-2.72,-2.47,3.13,3.13,3.13
92.58,6.11,3.04,6.11,3.03,-3.04,-2.67,-2.45,3.07,3.07,3.07
93.51,6.02,3.01,6.03,3.01,-3.01,-2.63,-2.43,3.01,3.01,3.01
94.44,5.94,2.99,5.94,2.99,-2.99,-2.58,-2.41,2.95,2.95,2.95
95.39,5.85,2.97,5.85,2.96,-2.97,-2.53,-2.39,2.88,2.88,2.88
96.34,5.75,2.94,5.76,2.94,-2.94,-2.49,-2.38,2.81,2.81,2.81
97.30,5.66,2.91,5.66,2.92,-2.92,-2.44,-2.37,2.74,2.74,2.75
98.28,5.58,2.92,5.57,2.90,-2.90,-2.40,-2.35,2.68,2.67,2.66
99.26,5.47,2.88,5.48,2.88,-2.87,-2.35,-2.34,2.60,2.61,2.59
100.25,5.39,2.86,5.38,2.85,-2.84,-2.30,-2.34,2.55,2.54,2.53
101.25,5.28,2.81,5.29,2.81,-2.81,-2.26,-2.33,2.47,2.47,2.47
102.27,5.19,2.78,5.19,2.78,-2.78,-2.22,-2.32,2.41,2.41,2.41
103.29,5.09,2.75,5.09,2.74,-2.74,-2.17,-2.32,2.35,2.35,2.34
104.32,4.99,2.70,4.99,2.70,-2.70,-2.13,-2.31,2.29,2.29,2.29
105.37,4.89,2.66,4.89,2.66,-2.66,-2.08,-2.31,2.23,2.23,2.23
106.42,4.79,2.62,4.79,2.62,-2.62,-2.04,-2.30,2.18,2.17,2.17
107.48,4.68,2.58,4.68,2.57,-2.57,-2.00,-2.30,2.11,2.11,2.10
108.56,4.58,2.53,4.58,2.52,-2.53,-1.96,-2.29,2.06,2.05,2.05
109.64,4.47,2.47,4.47,2.48,-2.48,-1.91,-2.29,1.99,1.99,2.00
110.74,4.37,2.44,4.37,2.43,-2.44,-1.87,-2.29,1.94,1.94,1.93
111.85,4.27,2.40,4.27,2.39,-2.39,-1.83,-2.28,1.88,1.88,1.87
112.97,4.16,2.35,4.16,2.35,-2.35,-1.79,-2.28,1.81,1.81,1.81
114.10,4.05,2.30,4.05,2.30,-2.30,-1.75,-2.27,1.75,1.75,1.75
115.24,3.94,2.26,3.94,2.26,-2.26,-1.71,-2.26,1.68,1.68,1.68
116.39,3.83,2.23,3.83,2.22,-2.22,-1.68,-2.25,1.61,1.61,1.60
117.55,3.72,2.18,3.72,2.18,-2.18,-1.64,-2.24,1.54,1.54,1.54
118.73,3.61,2.15,3.61,2.14,-2.14,-1.60,-2.23,1.47,1.47,1.46
119.92,3.50,2.11,3.50,2.10,-2.10,-1.56,-2.22,1.40,1.40,1.39
121.12,3.39,2.06,3.39,2.06,-2.06,-1.53,-2.20,1.33,1.33,1.33
122.33,3.28,2.03,3.28,2.02,-2.02,-1.49,-2.18,1.26,1.26,1.25
123.55,3.17,1.98,3.17,1.98,-1.99,-1.45,-2.16,1.18,1.19,1.19
124.79,3.07,1.95,3.06,1.94,-1.95,-1.42,-2.14,1.12,1.11,1.12
126.03,2.95,1.90,2.96,1.91,-1.92,-1.38,-2.11,1.03,1.04,1.05
127.29,2.85,1.89,2.85,1.88,-1.88,-1.35,-2.08,0.97,0.97,0.96
128.57,2.75,1.86,2.74,1.85,-1.85,-1.32,-2.05,0.90,0.89,0.89
129.85,2.63,1.82,2.64,1.82,-1.82,-1.28,-2.02,0.82,0.82,0.81
131.15,2.53,1.79,2.53,1.78,-1.78,-1.25,-1.99,0.75,0.75,0.74
132.46,2.41,1.74,2.42,1.74,-1.74,-1.22,-1.95,0.67,0.68,0.67
133.79,2.31,1.70,2.31,1.70,-1.69,-1.19,-1.91,0.62,0.61,0.61
135.12,2.20,1.66,2.20,1.65,-1.65,-1.15,-1.87,0.55,0.55,0.54
136.48,2.09,1.59,2.09,1.60,-1.60,-1.12,-1.83,0.50,0.50,0.50
137.84,1.98,1.54,1.98,1.54,-1.54,-1.09,-1.78,0.44,0.44,0.44
139.22,1.87,1.50,1.87,1.48,-1.49,-1.06,-1.74,0.38,0.38,0.37
140.61,1.76,1.43,1.76,1.43,-1.43,-1.03,-1.69,0.33,0.33,0.33
142.02,1.65,1.37,1.65,1.37,-1.37,-1.00,-1.64,0.28,0.28,0.28
143.44,1.55,1.33,1.54,1.31,-1.32,-0.97,-1.59,0.23,0.23,0.22
144.87,1.43,1.25,1.44,1.26,-1.26,-0.94,-1.54,0.17,0.18,0.18
146.32,1.33,1.20,1.33,1.20,-1.20,-0.91,-1.48,0.13,0.14,0.13
147.78,1.23,1.15,1.23,1.14,-1.14,-0.88,-1.43,0.09,0.09,0.08
149.26,1.12,1.08,1.12,1.08,-1.08,-0.85,-1.38,0.04,0.04,0.04
150.75,1.00,1.02,1.01,1.02,-1.01,-0.82,-1.32,-0.01,-0.01,-0.02
152.26,0.90,0.95,0.90,0.95,-0.95,-0.79,-1.27,-0.05,-0.05,-0.05
153.78,0.79,0.90,0.79,0.89,-0.89,-0.76,-1.22,-0.10,-0.10,-0.11
155.32,0.68,0.83,0.68,0.83,-0.83,-0.74,-1.16,-0.15,-0.15,-0.15
156.88,0.56,0.76,0.57,0.77,-0.77,-0.71,-1.11,-0.21,-0.20,-0.20
158.44,0.46,0.71,0.46,0.70,-0.71,-0.68,-1.05,-0.25,-0.25,-0.25
160.03,0.35,0.65,0.35,0.65,-0.65,-0.65,-1.00,-0.30,-0.30,-0.30
161.63,0.24,0.59,0.24,0.59,-0.59,-0.62,-0.94,-0.35,-0.35,-0.35
163.24,0.13,0.55,0.13,0.54,-0.54,-0.59,-0.89,-0.40,-0.40,-0.42
164.88,0.02,0.48,0.02,0.49,-0.48,-0.56,-0.83,-0.46,-0.46,-0.46
166.53,-0.08,0.44,-0.08,0.43,-0.43,-0.53,-0.78,-0.51,-0.51,-0.52
168.19,-0.19,0.37,-0.19,0.37,-0.38,-0.50,-0.73,-0.57,-0.56,-0.56
169.87,-0.29,0.32,-0.29,0.33,-0.33,-0.47,-0.67,-0.61,-0.62,-0.61
171.57,-0.40,0.28,-0.39,0.27,-0.27,-0.44,-0.62,-0.67,-0.67,-0.68
173.29,-0.49,0.24,-0.49,0.23,-0.22,-0.41,-0.57,-0.71,-0.72,-0.73
175.02,-0.60,0.17,-0.59,0.18,-0.18,-0.38,-0.51,-0.77,-0.77,-0.77
176.77,-0.69,0.13,-0.69,0.13,-0.13,-0.34,-0.46,-0.82,-0.82,-0.82
178.54,-0.79,0.08,-0.79,0.08,-0.08,-0.31,-0.41,-0.87,-0.87,-0.87
180.32,-0.88,0.05,-0.88,0.04,-0.03,-0.28,-0.36,-0.91,-0.92,-0.93
182.13,-0.98,-0.01,-0.98,-0.01,0.01,-0.24,-0.31,-0.97,-0.96,-0.97
183.95,-1.07,-0.06,-1.07,-0.05,0.06,-0.21,-0.25,-1.01,-1.01,-1.01
185.79,-1.16,-0.09,-1.16,-0.10,0.10,-0.17,-0.20,-1.06,-1.06,-1.07
187.65,-1.25,-0.14,-1.25,-0.14,0.14,-0.14,-0.15,-1.11,-1.11,-1.11
189.52,-1.34,-0.18,-1.33,-0.18,0.17,-0.10,-0.10,-1.17,-1.16,-1.16
191.42,-1.42,-0.21,-1.42,-0.21,0.21,-0.06,-0.05,-1.21,-1.21,-1.21
193.33,-1.49,-0.23,-1.49,-0.24,0.24,-0.02,-0.00,-1.25,-1.25,-1.26
195.27,-1.58,-0.27,-1.57,-0.27,0.28,0.02,0.04,-1.30,-1.30,-1.31
197.22,-1.65,-0.29,-1.66,-0.30,0.31,0.06,0.09,-1.34,-1.35,-1.36
199.19,-1.74,-0.35,-1.73,-0.34,0.34,0.11,0.14,-1.40,-1.39,-1.39
201.18,-1.81,-0.37,-1.81,-0.37,0.38,0.15,0.19,-1.43,-1.43,-1.44
203.19,-1.87,-0.40,-1.88,-0.41,0.41,0.19,0.23,-1.46,-1.47,-1.47
205.23,-1.95,-0.44,-1.94,-0.44,0.44,0.24,0.28,-1.51,-1.50,-1.51
207.28,-2.01,-0.47,-2.02,-0.48,0.47,0.29,0.33,-1.54,-1.54,-1.54
209.35,-2.09,-0.51,-2.08,-0.51,0.50,0.34,0.37,-1.59,-1.58,-1.58
211.44,-2.15,-0.53,-2.14,-0.53,0.53,0.38,0.41,-1.62,-1.62,-1.62
213.56,-2.20,-0.54,-2.20,-0.55,0.55,0.43,0.46,-1.65,-1.65,-1.66
215.69,-2.26,-0.57,-2.26,-0.57,0.58,0.48,0.50,-1.68,-1.68,-1.69
217.85,-2.32,-0.60,-2.31,-0.59,0.60,0.53,0.54,-1.72,-1.72,-1.72
220.03,-2.37,-0.61,-2.37,-0.62,0.62,0.58,0.58,-1.75,-1.75,-1.76
222.23,-2.42,-0.64,-2.42,-0.64,0.64,0.63,0.61,-1.78,-1.78,-1.78
224.45,-2.47,-0.66,-2.47,-0.66,0.66,0.67,0.65,-1.81,-1.81,-1.81
226.70,-2.52,-0.68,-2.52,-0.68,0.68,0.71,0.68,-1.84,-1.83,-1.84
228.96,-2.56,-0.70,-2.56,-0.70,0.70,0.75,0.71,-1.86,-1.86,-1.86
231.25,-2.60,-0.72,-2.60,-0.72,0.71,0.79,0.74,-1.88,-1.89,-1.88
233.57,-2.64,-0.73,-2.64,-0.73,0.73,0.82,0.77,-1.91,-1.91,-1.91
235.90,-2.67,-0.73,-2.67,-0.74,0.74,0.85,0.80,-1.93,-1.93,-1.94
238.26,-2.70,-0.73,-2.70,-0.74,0.75,0.88,0.82,-1.95,-1.95,-1.97
240.64,-2.73,-0.76,-2.73,-0.75,0.75,0.89,0.84,-1.98,-1.97,-1.97
243.05,-2.75,-0.76,-2.75,-0.76,0.76,0.91,0.86,-1.99,-1.99,-1.99
245.48,-2.78,-0.76,-2.78,-0.76,0.77,0.91,0.87,-2.01,-2.01,-2.02
247.93,-2.80,-0.76,-2.79,-0.77,0.77,0.92,0.89,-2.03,-2.02,-2.04
250.41,-2.81,-0.77,-2.81,-0.77,0.78,0.91,0.90,-2.03,-2.04,-2.04
252.92,-2.83,-0.78,-2.83,-0.78,0.78,0.90,0.91,-2.05,-2.05,-2.05
255.45,-2.85,-0.78,-2.85,-0.78,0.78,0.89,0.91,-2.07,-2.07,-2.07
258.00,-2.86,-0.78,-2.86,-0.78,0.77,0.87,0.91,-2.08,-2.08,-2.08
260.58,-2.86,-0.77,-2.86,-0.77,0.77,0.85,0.91,-2.09,-2.09,-2.09
263.19,-2.86,-0.75,-2.86,-0.76,0.76,0.82,0.91,-2.10,-2.10,-2.11
265.82,-2.87,-0.75,-2.86,-0.75,0.75,0.80,0.91,-2.12,-2.11,-2.12
268.48,-2.87,-0.74,-2.87,-0.74,0.74,0.77,0.90,-2.13,-2.13,-2.13
271.16,-2.87,-0.72,-2.87,-0.73,0.73,0.73,0.89,-2.14,-2.15,-2.15
273.87,-2.88,-0.72,-2.87,-0.71,0.71,0.70,0.88,-2.17,-2.16,-2.16
276.61,-2.87,-0.69,-2.87,-0.69,0.70,0.67,0.87,-2.17,-2.17,-2.18
279.38,-2.87,-0.67,-2.87,-0.68,0.68,0.64,0.85,-2.19,-2.18,-2.20
282.17,-2.86,-0.65,-2.86,-0.66,0.67,0.60,0.84,-2.19,-2.20,-2.21
284.99,-2.86,-0.66,-2.86,-0.65,0.65,0.57,0.82,-2.21,-2.21,-2.20
287.84,-2.86,-0.65,-2.85,-0.64,0.63,0.54,0.80,-2.23,-2.22,-2.21
290.72,-2.84,-0.60,-2.84,-0.62,0.62,0.51,0.78,-2.22,-2.23,-2.24
293.63,-2.83,-0.60,-2.83,-0.60,0.60,0.48,0.76,-2.23,-2.23,-2.23
296.57,-2.82,-0.58,-2.82,-0.58,0.59,0.45,0.74,-2.23,-2.23,-2.24
299.53,-2.81,-0.56,-2.81,-0.57,0.57,0.42,0.72,-2.24,-2.24,-2.25
302.53,-2.80,-0.55,-2.80,-0.55,0.55,0.40,0.70,-2.25,-2.25,-2.25
305.55,-2.79,-0.53,-2.79,-0.53,0.53,0.37,0.67,-2.26,-2.26,-2.26
308.61,-2.78,-0.52,-2.77,-0.52,0.51,0.35,0.65,-2.27,-2.26,-2.26
311.69,-2.76,-0.49,-2.76,-0.49,0.49,0.33,0.63,-2.26,-2.26,-2.27
314.81,-2.74,-0.47,-2.74,-0.48,0.48,0.31,0.60,-2.26,-2.26,-2.27
317.96,-2.73,-0.45,-2.73,-0.45,0.46,0.29,0.58,-2.27,-2.27,-2.28
321.14,-2.71,-0.44,-2.71,-0.44,0.44,0.27,0.56,-2.27,-2.27,-2.27
324.35,-2.70,-0.41,-2.70,-0.42,0.42,0.25,0.53,-2.28,-2.28,-2.29
327.59,-2.68,-0.41,-2.68,-0.40,0.40,0.24,0.51,-2.28,-2.28,-2.27
330.87,-2.67,-0.39,-2.66,-0.39,0.38,0.22,0.49,-2.28,-2.28,-2.28
334.18,-2.64,-0.35,-2.64,-0.37,0.37,0.21,0.46,-2.27,-2.28,-2.29
337.52,-2.63,-0.35,-2.63,-0.34,0.35,0.19,0.44,-2.28,-2.28,-2.28
340.90,-2.61,-0.32,-2.61,-0.33,0.33,0.18,0.42,-2.28,-2.28,-2.29
344.30,-2.59,-0.31,-2.59,-0.31,0.31,0.17,0.40,-2.28,-2.28,-2.28
347.75,-2.58,-0.31,-2.57,-0.30,0.29,0.16,0.37,-2.28,-2.28,-2.27
351.23,-2.55,-0.26,-2.55,-0.28,0.28,0.15,0.35,-2.27,-2.28,-2.29
354.74,-2.53,-0.26,-2.53,-0.26,0.26,0.14,0.33,-2.27,-2.27,-2.27
358.28,-2.52,-0.24,-2.51,-0.23,0.24,0.13,0.31,-2.28,-2.27,-2.28
361.87,-2.49,-0.21,-2.49,-0.22,0.22,0.12,0.29,-2.27,-2.27,-2.28
365.49,-2.48,-0.20,-2.48,-0.20,0.20,0.11,0.27,-2.28,-2.27,-2.28
369.14,-2.46,-0.19,-2.46,-0.19,0.18,0.11,0.25,-2.27,-2.27,-2.27
372.83,-2.44,-0.17,-2.44,-0.17,0.17,0.10,0.22,-2.27,-2.27,-2.27
376.56,-2.42,-0.14,-2.42,-0.14,0.15,0.09,0.21,-2.27,-2.27,-2.28
380.33,-2.40,-0.12,-2.40,-0.12,0.13,0.09,0.19,-2.27,-2.27,-2.28
384.13,-2.38,-0.10,-2.38,-0.11,0.11,0.08,0.17,-2.27,-2.27,-2.28
387.97,-2.37,-0.10,-2.37,-0.09,0.09,0.07,0.15,-2.28,-2.27,-2.27
391.85,-2.35,-0.07,-2.35,-0.07,0.07,0.07,0.13,-2.27,-2.27,-2.28
395.77,-2.33,-0.05,-2.33,-0.06,0.06,0.06,0.11,-2.27,-2.27,-2.28
399.73,-2.31,-0.03,-2.31,-0.04,0.04,0.06,0.09,-2.27,-2.27,-2.28
403.72,-2.30,-0.03,-2.30,-0.03,0.02,0.06,0.08,-2.27,-2.27,-2.27
407.76,-2.28,-0.01,-2.28,-0.01,0.01,0.05,0.06,-2.27,-2.27,-2.27
411.84,-2.26,0.01,-2.26,0.01,-0.01,0.05,0.04,-2.27,-2.27,-2.27
415.96,-2.24,0.03,-2.24,0.03,-0.02,0.05,0.03,-2.26,-2.27,-2.27
420.12,-2.23,0.05,-2.23,0.04,-0.04,0.04,0.01,-2.27,-2.27,-2.28
424.32,-2.22,0.06,-2.21,0.06,-0.06,0.04,-0.01,-2.28,-2.27,-2.28
428.56,-2.20,0.07,-2.20,0.07,-0.08,0.04,-0.02,-2.27,-2.28,-2.27
432.85,-2.18,0.09,-2.18,0.09,-0.09,0.03,-0.04,-2.27,-2.28,-2.27
437.18,-2.17,0.11,-2.16,0.11,-0.11,0.03,-0.05,-2.28,-2.27,-2.28
441.55,-2.15,0.13,-2.15,0.13,-0.13,0.03,-0.06,-2.27,-2.28,-2.28
445.96,-2.14,0.15,-2.14,0.14,-0.14,0.03,-0.08,-2.28,-2.28,-2.29
450.42,-2.13,0.16,-2.13,0.16,-0.15,0.03,-0.09,-2.28,-2.28,-2.29
454.93,-2.12,0.17,-2.12,0.17,-0.16,0.02,-0.10,-2.28,-2.28,-2.29
459.48,-2.11,0.18,-2.11,0.17,-0.17,0.02,-0.11,-2.28,-2.28,-2.29
464.07,-2.10,0.18,-2.10,0.18,-0.18,0.02,-0.12,-2.28,-2.28,-2.28
468.71,-2.09,0.19,-2.09,0.19,-0.19,0.02,-0.13,-2.28,-2.28,-2.28
473.40,-2.08,0.20,-2.08,0.19,-0.20,0.02,-0.14,-2.28,-2.28,-2.28
478.13,-2.08,0.20,-2.07,0.20,-0.20,0.02,-0.15,-2.28,-2.28,-2.28
482.91,-2.06,0.22,-2.07,0.21,-0.21,0.02,-0.16,-2.27,-2.28,-2.28
487.74,-2.06,0.22,-2.06,0.22,-0.22,0.01,-0.17,-2.28,-2.28,-2.28
492.62,-2.06,0.22,-2.05,0.22,-0.22,0.01,-0.17,-2.28,-2.27,-2.28
497.55,-2.05,0.23,-2.05,0.23,-0.22,0.01,-0.18,-2.27,-2.27,-2.28
502.52,-2.04,0.24,-2.04,0.23,-0.23,0.01,-0.18,-2.27,-2.27,-2.28
