frequency,raw,error,smoothed,error_smoothed,equalization,parametric_eq,fixed_band_eq,equalized_raw,equalized_smoothed,target
20.00,18.84,6.51,18.82,6.49,-6.49,-6.17,-2.31,12.35,12.33,12.33
20.20,18.77,6.45,18.76,6.44,-6.44,-6.15,-2.38,12.33,12.32,12.32
20.40,18.70,6.39,18.69,6.39,-6.39,-6.12,-2.45,12.31,12.30,12.31
20.61,18.63,6.33,18.63,6.34,-6.34,-6.10,-2.52,12.29,12.29,12.30
20.81,18.57,6.29,18.57,6.29,-6.29,-6.08,-2.59,12.28,12.28,12.27
21.02,18.51,6.24,18.51,6.24,-6.24,-6.05,-2.67,12.26,12.27,12.26
21.23,18.45,6.19,18.46,6.20,-6.20,-6.03,-2.75,12.25,12.26,12.25
21.44,18.40,6.13,18.40,6.16,-6.16,-6.00,-2.83,12.24,12.25,12.26
21.66,18.34,6.10,18.35,6.11,-6.11,-5.98,-2.91,12.22,12.24,12.24
21.87,18.29,6.05,18.31,6.07,-6.07,-5.95,-2.99,12.21,12.23,12.24
22.09,18.25,6.03,18.26,6.04,-6.04,-5.92,-3.08,12.21,12.22,12.22
22.31,18.20,5.98,18.22,6.00,-6.00,-5.90,-3.17,12.20,12.22,12.22
22.54,18.17,5.96,18.18,5.97,-5.97,-5.87,-3.26,12.20,12.21,12.21
22.76,18.15,5.94,18.14,5.94,-5.94,-5.84,-3.35,12.21,12.20,12.21
22.99,18.12,5.92,18.11,5.91,-5.91,-5.81,-3.45,12.21,12.20,12.19
23.22,18.09,5.90,18.08,5.88,-5.88,-5.79,-3.55,12.20,12.19,12.18
23.45,18.06,5.86,18.04,5.86,-5.86,-5.76,-3.65,12.20,12.19,12.19
23.69,18.02,5.84,18.01,5.83,-5.83,-5.73,-3.75,12.19,12.18,12.18
23.92,17.99,5.82,17.98,5.80,-5.80,-5.70,-3.86,12.18,12.18,12.17
24.16,17.96,5.78,17.95,5.78,-5.78,-5.67,-3.96,12.18,12.17,12.18
24.40,17.92,5.74,17.92,5.75,-5.75,-5.64,-4.07,12.17,12.17,12.18
24.65,17.89,5.71,17.89,5.72,-5.72,-5.61,-4.18,12.17,12.17,12.17
24.89,17.85,5.67,17.85,5.69,-5.69,-5.58,-4.30,12.16,12.17,12.17
25.14,17.82,5.66,17.82,5.65,-5.65,-5.55,-4.41,12.16,12.17,12.16
25.39,17.79,5.63,17.78,5.62,-5.62,-5.52,-4.52,12.17,12.16,12.16
25.65,17.75,5.59,17.75,5.59,-5.59,-5.49,-4.64,12.16,12.16,12.16
25.91,17.72,5.56,17.72,5.56,-5.56,-5.46,-4.75,12.16,12.16,12.16
26.16,17.69,5.52,17.68,5.52,-5.52,-5.43,-4.87,12.16,12.16,12.16
26.43,17.65,5.49,17.65,5.49,-5.49,-5.40,-4.98,12.16,12.16,12.16
26.69,17.62,5.46,17.61,5.46,-5.46,-5.37,-5.10,12.16,12.16,12.16
26.96,17.58,5.42,17.58,5.42,-5.42,-5.34,-5.21,12.15,12.16,12.16
27.23,17.55,5.39,17.55,5.39,-5.39,-5.31,-5.32,12.16,12.16,12.16
27.50,17.52,5.36,17.51,5.35,-5.35,-5.28,-5.43,12.16,12.16,12.15
27.77,17.48,5.32,17.48,5.32,-5.32,-5.25,-5.54,12.16,12.16,12.16
28.05,17.45,5.29,17.45,5.28,-5.28,-5.22,-5.64,12.16,12.16,12.16
28.33,17.42,5.25,17.41,5.25,-5.25,-5.19,-5.73,12.17,12.16,12.16
28.62,17.38,5.22,17.38,5.22,-5.22,-5.16,-5.82,12.16,12.16,12.16
28.90,17.35,5.18,17.34,5.18,-5.18,-5.13,-5.91,12.16,12.16,12.17
29.19,17.31,5.14,17.31,5.15,-5.15,-5.11,-5.99,12.16,12.16,12.17
29.48,17.28,5.11,17.28,5.12,-5.12,-5.08,-6.06,12.16,12.16,12.16
29.78,17.25,5.09,17.24,5.09,-5.09,-5.05,-6.13,12.16,12.15,12.16
30.08,17.21,5.05,17.21,5.06,-5.06,-5.02,-6.18,12.15,12.15,12.16
30.38,17.18,5.04,17.18,5.03,-5.03,-4.99,-6.23,12.15,12.15,12.14
30.68,17.15,5.01,17.14,5.00,-5.00,-4.96,-6.27,12.15,12.14,12.14
30.99,17.11,4.97,17.11,4.98,-4.98,-4.93,-6.30,12.13,12.14,12.13
31.30,17.08,4.95,17.08,4.95,-4.95,-4.90,-6.32,12.13,12.13,12.13
31.61,17.05,4.92,17.04,4.92,-4.92,-4.87,-6.33,12.13,12.12,12.13
31.93,17.01,4.91,17.01,4.89,-4.89,-4.84,-6.33,12.11,12.11,12.10
32.24,16.98,4.87,16.97,4.87,-4.87,-4.82,-6.32,12.11,12.10,12.11
32.57,16.94,4.84,16.94,4.84,-4.84,-4.79,-6.31,12.10,12.10,12.09
32.89,16.91,4.82,16.90,4.81,-4.81,-4.76,-6.28,12.09,12.09,12.09
33.22,16.88,4.79,16.87,4.79,-4.79,-4.73,-6.25,12.09,12.08,12.08
33.55,16.84,4.76,16.84,4.76,-4.76,-4.71,-6.21,12.07,12.07,12.08
33.89,16.80,4.74,16.80,4.74,-4.74,-4.68,-6.16,12.06,12.06,12.06
34.23,16.77,4.72,16.77,4.72,-4.72,-4.65,-6.10,12.05,12.05,12.05
34.57,16.73,4.69,16.74,4.70,-4.70,-4.63,-6.04,12.03,12.04,12.04
34.92,16.70,4.67,16.71,4.68,-4.68,-4.60,-5.98,12.02,12.03,12.02
35.27,16.68,4.64,16.68,4.66,-4.66,-4.58,-5.91,12.02,12.02,12.04
35.62,16.65,4.64,16.65,4.64,-4.64,-4.55,-5.84,12.00,12.01,12.01
35.97,16.63,4.62,16.62,4.63,-4.63,-4.53,-5.76,12.00,11.99,12.00
36.33,16.60,4.61,16.59,4.62,-4.62,-4.50,-5.69,11.98,11.98,11.99
36.70,16.57,4.61,16.56,4.60,-4.60,-4.48,-5.61,11.96,11.96,11.96
37.06,16.54,4.60,16.54,4.59,-4.59,-4.46,-5.53,11.94,11.94,11.94
37.43,16.50,4.57,16.51,4.58,-4.58,-4.43,-5.45,11.91,11.92,11.92
37.81,16.48,4.57,16.47,4.57,-4.57,-4.41,-5.37,11.90,11.90,11.90
38.19,16.45,4.57,16.44,4.56,-4.56,-4.39,-5.29,11.89,11.88,11.88
38.57,16.42,4.56,16.40,4.55,-4.55,-4.37,-5.21,11.87,11.86,11.86
38.95,16.38,4.54,16.36,4.53,-4.53,-4.34,-5.14,11.85,11.83,11.84
39.34,16.33,4.52,16.32,4.51,-4.51,-4.32,-5.06,11.81,11.81,11.81
39.74,16.28,4.50,16.28,4.49,-4.49,-4.30,-4.99,11.78,11.78,11.78
40.14,16.24,4.48,16.23,4.47,-4.47,-4.28,-4.92,11.76,11.76,11.76
40.54,16.20,4.46,16.19,4.45,-4.45,-4.26,-4.85,11.74,11.73,11.74
40.94,16.15,4.44,16.14,4.43,-4.43,-4.24,-4.78,11.72,11.71,11.71
41.35,16.09,4.40,16.09,4.40,-4.40,-4.22,-4.72,11.68,11.69,11.68
41.76,16.04,4.38,16.04,4.38,-4.38,-4.21,-4.66,11.66,11.66,11.65
42.18,15.97,4.33,15.98,4.35,-4.35,-4.19,-4.60,11.62,11.63,11.64
42.60,15.92,4.31,15.93,4.32,-4.32,-4.17,-4.55,11.59,11.61,11.61
43.03,15.88,4.29,15.88,4.30,-4.30,-4.15,-4.50,11.58,11.58,11.58
43.46,15.84,4.29,15.83,4.28,-4.28,-4.14,-4.45,11.56,11.55,11.55
43.90,15.79,4.26,15.78,4.26,-4.26,-4.12,-4.41,11.53,11.52,11.52
44.33,15.74,4.25,15.73,4.24,-4.24,-4.10,-4.37,11.50,11.49,11.49
44.78,15.68,4.21,15.68,4.22,-4.22,-4.09,-4.33,11.46,11.46,11.46
45.23,15.62,4.18,15.63,4.20,-4.20,-4.07,-4.30,11.42,11.43,11.44
45.68,15.56,4.17,15.58,4.19,-4.19,-4.06,-4.27,11.37,11.39,11.39
46.13,15.53,4.17,15.53,4.18,-4.18,-4.05,-4.24,11.35,11.35,11.35
46.60,15.49,4.17,15.48,4.17,-4.17,-4.03,-4.22,11.32,11.31,11.32
47.06,15.45,4.17,15.43,4.17,-4.17,-4.02,-4.19,11.28,11.27,11.28
47.53,15.40,4.16,15.39,4.16,-4.16,-4.01,-4.18,11.24,11.23,11.24
48.01,15.34,4.16,15.34,4.16,-4.16,-4.00,-4.16,11.18,11.18,11.18
48.49,15.28,4.14,15.29,4.15,-4.15,-3.99,-4.15,11.12,11.14,11.14
48.97,15.24,4.15,15.24,4.15,-4.15,-3.98,-4.14,11.08,11.09,11.09
49.46,15.20,4.15,15.20,4.15,-4.15,-3.97,-4.14,11.04,11.04,11.04
49.96,15.16,4.18,15.15,4.16,-4.16,-3.96,-4.13,11.00,11.00,10.98
50.46,15.12,4.17,15.11,4.16,-4.16,-3.95,-4.13,10.96,10.95,10.95
50.96,15.06,4.15,15.06,4.16,-4.16,-3.94,-4.13,10.90,10.90,10.90
51.47,15.01,4.15,15.01,4.16,-4.16,-3.93,-4.14,10.85,10.86,10.86
51.99,14.96,4.16,14.97,4.16,-4.16,-3.92,-4.14,10.80,10.81,10.80
52.51,14.92,4.15,14.92,4.16,-4.16,-3.92,-4.15,10.76,10.76,10.76
53.03,14.88,4.15,14.87,4.15,-4.15,-3.91,-4.15,10.72,10.71,10.73
53.56,14.84,4.16,14.82,4.15,-4.15,-3.90,-4.16,10.69,10.67,10.68
54.10,14.77,4.15,14.77,4.15,-4.15,-3.90,-4.17,10.62,10.62,10.62
54.64,14.72,4.14,14.71,4.14,-4.14,-3.89,-4.18,10.58,10.58,10.58
55.18,14.67,4.14,14.66,4.13,-4.13,-3.89,-4.19,10.54,10.53,10.53
55.74,14.61,4.13,14.60,4.11,-4.11,-3.88,-4.20,10.49,10.49,10.47
56.29,14.55,4.11,14.55,4.10,-4.10,-3.88,-4.21,10.44,10.44,10.44
56.86,14.49,4.09,14.49,4.10,-4.10,-3.88,-4.22,10.39,10.40,10.40
57.42,14.44,4.10,14.44,4.09,-4.09,-3.87,-4.23,10.35,10.35,10.34
58.00,14.38,4.08,14.38,4.08,-4.08,-3.87,-4.24,10.30,10.30,10.29
58.58,14.32,4.06,14.32,4.07,-4.07,-3.87,-4.25,10.25,10.25,10.26
59.16,14.26,4.04,14.26,4.06,-4.06,-3.87,-4.25,10.19,10.20,10.22
59.76,14.20,4.03,14.20,4.06,-4.06,-3.87,-4.26,10.14,10.14,10.17
60.35,14.14,4.03,14.15,4.06,-4.06,-3.87,-4.26,10.08,10.09,10.11
60.96,14.09,4.04,14.09,4.06,-4.06,-3.87,-4.26,10.03,10.03,10.04
61.57,14.04,4.07,14.03,4.05,-4.05,-3.87,-4.25,9.98,9.97,9.97
62.18,13.98,4.07,13.97,4.06,-4.06,-3.87,-4.25,9.92,9.91,9.91
62.80,13.91,4.07,13.91,4.06,-4.06,-3.87,-4.24,9.85,9.85,9.84
63.43,13.85,4.07,13.85,4.06,-4.06,-3.87,-4.23,9.79,9.79,9.77
64.07,13.79,4.07,13.79,4.06,-4.06,-3.87,-4.22,9.72,9.73,9.72
64.71,13.74,4.08,13.73,4.07,-4.07,-3.88,-4.20,9.67,9.66,9.66
65.35,13.68,4.08,13.66,4.07,-4.07,-3.88,-4.18,9.61,9.60,9.59
66.01,13.61,4.07,13.60,4.07,-4.07,-3.88,-4.17,9.54,9.53,9.53
66.67,13.54,4.06,13.54,4.07,-4.07,-3.89,-4.14,9.47,9.47,9.48
67.33,13.47,4.06,13.48,4.07,-4.07,-3.89,-4.12,9.40,9.41,9.41
68.01,13.42,4.07,13.41,4.07,-4.07,-3.89,-4.10,9.35,9.34,9.35
68.69,13.36,4.08,13.35,4.07,-4.07,-3.90,-4.07,9.29,9.28,9.28
69.37,13.29,4.06,13.29,4.07,-4.07,-3.90,-4.05,9.21,9.21,9.22
70.07,13.22,4.06,13.23,4.08,-4.08,-3.91,-4.02,9.14,9.15,9.15
70.77,13.15,4.06,13.17,4.09,-4.09,-3.92,-3.99,9.06,9.08,9.08
71.48,13.09,4.07,13.11,4.09,-4.09,-3.92,-3.96,8.99,9.01,9.02
72.19,13.05,4.10,13.05,4.10,-4.10,-3.93,-3.94,8.95,8.95,8.95
72.91,13.00,4.13,12.99,4.11,-4.11,-3.93,-3.91,8.89,8.88,8.87
73.64,12.94,4.13,12.93,4.12,-4.12,-3.94,-3.88,8.82,8.81,8.81
74.38,12.88,4.14,12.88,4.13,-4.13,-3.95,-3.85,8.75,8.75,8.74
75.12,12.82,4.14,12.82,4.14,-4.14,-3.96,-3.83,8.68,8.68,8.68
75.87,12.77,4.15,12.76,4.14,-4.14,-3.96,-3.81,8.62,8.62,8.62
76.63,12.72,4.17,12.70,4.15,-4.15,-3.97,-3.78,8.57,8.56,8.55
77.40,12.65,4.15,12.65,4.16,-4.16,-3.98,-3.76,8.49,8.49,8.49
78.17,12.59,4.17,12.59,4.16,-4.16,-3.99,-3.74,8.43,8.43,8.42
78.95,12.53,4.15,12.53,4.16,-4.16,-3.99,-3.72,8.37,8.37,8.38
79.74,12.48,4.17,12.47,4.16,-4.16,-4.00,-3.71,8.32,8.31,8.31
80.54,12.42,4.17,12.40,4.16,-4.16,-4.01,-3.70,8.26,8.25,8.25
81.35,12.35,4.16,12.34,4.16,-4.16,-4.02,-3.69,8.19,8.18,8.18
82.16,12.27,4.13,12.28,4.16,-4.16,-4.03,-3.68,8.11,8.12,8.13
82.98,12.21,4.14,12.21,4.15,-4.15,-4.04,-3.67,8.05,8.06,8.06
83.81,12.15,4.15,12.15,4.15,-4.15,-4.05,-3.67,7.99,8.00,8.00
84.65,12.09,4.16,12.08,4.15,-4.15,-4.06,-3.67,7.94,7.93,7.93
85.50,12.02,4.15,12.01,4.15,-4.15,-4.06,-3.67,7.87,7.87,7.86
86.35,11.95,4.15,11.95,4.15,-4.15,-4.07,-3.67,7.80,7.80,7.80
87.22,11.88,4.14,11.88,4.14,-4.14,-4.08,-3.68,7.73,7.73,7.73
88.09,11.81,4.14,11.81,4.14,-4.14,-4.09,-3.69,7.66,7.67,7.67
88.97,11.75,4.15,11.74,4.14,-4.14,-4.10,-3.71,7.60,7.60,7.60
89.86,11.68,4.15,11.67,4.14,-4.14,-4.11,-3.72,7.53,7.53,7.53
90.76,11.60,4.14,11.60,4.15,-4.15,-4.12,-3.74,7.45,7.46,7.46
91.66,11.53,4.15,11.54,4.15,-4.15,-4.13,-3.76,7.37,7.39,7.38
92.58,11.47,4.15,11.47,4.15,-4.15,-4.14,-3.79,7.31,7.31,7.32
93.51,11.41,4.16,11.40,4.16,-4.16,-4.14,-3.81,7.25,7.24,7.25
94.44,11.34,4.16,11.33,4.17,-4.17,-4.15,-3.84,7.17,7.17,7.18
95.39,11.27,4.17,11.27,4.18,-4.18,-4.16,-3.87,7.09,7.09,7.09
96.34,11.20,4.18,11.20,4.18,-4.18,-4.17,-3.91,7.01,7.02,7.02
97.30,11.13,4.18,11.14,4.19,-4.19,-4.18,-3.95,6.94,6.95,6.95
98.28,11.07,4.20,11.07,4.20,-4.20,-4.19,-3.98,6.87,6.87,6.86
99.26,11.01,4.22,11.01,4.21,-4.21,-4.19,-4.02,6.80,6.80,6.79
100.25,10.95,4.23,10.94,4.22,-4.22,-4.20,-4.07,6.73,6.73,6.71
101.25,10.88,4.23,10.88,4.22,-4.22,-4.21,-4.11,6.65,6.65,6.65
102.27,10.82,4.23,10.81,4.23,-4.23,-4.22,-4.16,6.59,6.58,6.58
103.29,10.76,4.25,10.75,4.23,-4.23,-4.22,-4.20,6.52,6.51,6.51
104.32,10.69,4.24,10.68,4.24,-4.24,-4.23,-4.25,6.45,6.44,6.44
105.37,10.61,4.23,10.61,4.24,-4.24,-4.24,-4.30,6.37,6.38,6.38
106.42,10.55,4.23,10.55,4.24,-4.24,-4.24,-4.34,6.31,6.31,6.31
107.48,10.49,4.25,10.48,4.24,-4.24,-4.25,-4.39,6.24,6.24,6.24
108.56,10.42,4.25,10.41,4.25,-4.25,-4.25,-4.44,6.17,6.17,6.17
109.64,10.34,4.23,10.34,4.25,-4.25,-4.26,-4.48,6.09,6.10,6.11
110.74,10.28,4.25,10.28,4.25,-4.25,-4.26,-4.53,6.03,6.03,6.03
111.85,10.21,4.25,10.21,4.25,-4.25,-4.27,-4.57,5.96,5.95,5.96
112.97,10.14,4.24,10.14,4.25,-4.25,-4.27,-4.61,5.88,5.88,5.89
114.10,10.07,4.25,10.07,4.25,-4.25,-4.27,-4.65,5.81,5.81,5.82
115.24,10.00,4.26,10.00,4.25,-4.25,-4.28,-4.68,5.74,5.74,5.73
116.39,9.93,4.27,9.93,4.26,-4.26,-4.28,-4.71,5.67,5.67,5.66
117.55,9.86,4.27,9.86,4.26,-4.26,-4.28,-4.74,5.60,5.60,5.59
118.73,9.79,4.27,9.79,4.26,-4.26,-4.28,-4.76,5.53,5.53,5.52
119.92,9.72,4.26,9.72,4.25,-4.25,-4.28,-4.78,5.46,5.46,5.46
121.12,9.64,4.24,9.65,4.26,-4.26,-4.28,-4.79,5.38,5.39,5.39
122.33,9.58,4.25,9.58,4.26,-4.26,-4.28,-4.80,5.32,5.32,5.32
123.55,9.52,4.25,9.51,4.26,-4.26,-4.28,-4.81,5.26,5.26,5.26
124.79,9.45,4.25,9.45,4.26,-4.26,-4.28,-4.81,5.19,5.19,5.20
126.03,9.38,4.25,9.38,4.26,-4.26,-4.28,-4.80,5.12,5.12,5.13
127.29,9.31,4.25,9.31,4.26,-4.26,-4.28,-4.79,5.05,5.05,5.06
128.57,9.25,4.26,9.25,4.26,-4.26,-4.27,-4.77,4.99,4.99,4.98
129.85,9.18,4.26,9.18,4.26,-4.26,-4.27,-4.75,4.91,4.92,4.92
131.15,9.12,4.27,9.12,4.26,-4.26,-4.27,-4.72,4.85,4.85,4.85
132.46,9.06,4.27,9.05,4.26,-4.26,-4.26,-4.69,4.79,4.78,4.78
133.79,8.99,4.28,8.98,4.26,-4.26,-4.26,-4.65,4.72,4.72,4.71
135.12,8.92,4.27,8.91,4.26,-4.26,-4.25,-4.61,4.65,4.65,4.65
136.48,8.85,4.26,8.84,4.26,-4.26,-4.24,-4.57,4.59,4.58,4.59
137.84,8.78,4.26,8.77,4.25,-4.25,-4.24,-4.52,4.53,4.52,4.52
139.22,8.71,4.25,8.70,4.24,-4.24,-4.23,-4.47,4.46,4.46,4.45
140.61,8.63,4.23,8.63,4.23,-4.23,-4.22,-4.42,4.39,4.40,4.40
142.02,8.56,4.23,8.56,4.22,-4.22,-4.21,-4.36,4.33,4.34,4.33
143.44,8.49,4.21,8.49,4.21,-4.21,-4.20,-4.31,4.28,4.28,4.28
144.87,8.42,4.19,8.42,4.20,-4.20,-4.19,-4.25,4.22,4.22,4.22
146.32,8.34,4.18,8.34,4.18,-4.18,-4.18,-4.19,4.16,4.16,4.16
147.78,8.27,4.16,8.27,4.16,-4.16,-4.17,-4.13,4.10,4.11,4.11
149.26,8.19,4.14,8.20,4.15,-4.15,-4.15,-4.07,4.04,4.05,4.05
150.75,8.13,4.13,8.13,4.13,-4.13,-4.14,-4.02,4.00,4.00,3.99
152.26,8.07,4.12,8.06,4.11,-4.11,-4.12,-3.96,3.95,3.94,3.95
153.78,8.00,4.11,7.98,4.10,-4.10,-4.11,-3.90,3.90,3.89,3.89
155.32,7.92,4.08,7.91,4.08,-4.08,-4.09,-3.85,3.84,3.83,3.84
156.88,7.84,4.05,7.84,4.06,-4.06,-4.08,-3.79,3.78,3.78,3.78
158.44,7.77,4.04,7.77,4.04,-4.04,-4.06,-3.74,3.72,3.72,3.72
160.03,7.70,4.02,7.69,4.03,-4.03,-4.04,-3.69,3.67,3.67,3.67
161.63,7.62,4.00,7.62,4.01,-4.01,-4.02,-3.64,3.61,3.61,3.61
163.24,7.54,3.98,7.54,3.99,-3.99,-4.00,-3.59,3.55,3.56,3.56
164.88,7.47,3.97,7.47,3.97,-3.97,-3.98,-3.55,3.50,3.50,3.50
166.53,7.41,3.97,7.39,3.95,-3.95,-3.96,-3.50,3.46,3.44,3.44
168.19,7.33,3.93,7.32,3.93,-3.93,-3.94,-3.46,3.40,3.39,3.39
169.87,7.24,3.91,7.24,3.91,-3.91,-3.92,-3.42,3.33,3.33,3.33
171.57,7.16,3.89,7.16,3.89,-3.89,-3.89,-3.39,3.27,3.27,3.27
173.29,7.09,3.87,7.09,3.87,-3.87,-3.87,-3.35,3.21,3.21,3.22
175.02,7.01,3.85,7.01,3.85,-3.85,-3.84,-3.32,3.15,3.16,3.16
176.77,6.93,3.82,6.93,3.83,-3.83,-3.82,-3.30,3.10,3.10,3.10
178.54,6.85,3.80,6.85,3.81,-3.81,-3.79,-3.27,3.04,3.05,3.05
180.32,6.78,3.79,6.78,3.78,-3.78,-3.77,-3.25,2.99,2.99,2.98
182.13,6.71,3.77,6.70,3.76,-3.76,-3.74,-3.23,2.95,2.94,2.94
183.95,6.63,3.74,6.62,3.74,-3.74,-3.71,-3.21,2.89,2.88,2.89
185.79,6.54,3.71,6.54,3.71,-3.71,-3.68,-3.19,2.83,2.83,2.82
187.65,6.47,3.69,6.46,3.69,-3.69,-3.65,-3.18,2.78,2.77,2.77
189.52,6.40,3.67,6.39,3.66,-3.66,-3.62,-3.17,2.73,2.72,2.73
191.42,6.31,3.63,6.31,3.64,-3.64,-3.59,-3.16,2.67,2.67,2.68
193.33,6.23,3.60,6.23,3.61,-3.61,-3.56,-3.16,2.62,2.62,2.63
195.27,6.15,3.57,6.16,3.58,-3.58,-3.52,-3.15,2.57,2.58,2.57
197.22,6.08,3.56,6.09,3.55,-3.55,-3.49,-3.15,2.52,2.53,2.52
199.19,6.01,3.52,6.02,3.53,-3.53,-3.46,-3.15,2.48,2.49,2.49
201.18,5.94,3.50,5.94,3.50,-3.50,-3.42,-3.15,2.44,2.45,2.43
203.19,5.88,3.48,5.88,3.47,-3.47,-3.39,-3.15,2.41,2.40,2.40
205.23,5.82,3.45,5.81,3.45,-3.45,-3.35,-3.15,2.37,2.36,2.37
207.28,5.75,3.42,5.75,3.42,-3.42,-3.31,-3.15,2.33,2.33,2.33
209.35,5.68,3.38,5.68,3.39,-3.39,-3.28,-3.16,2.28,2.29,2.29
211.44,5.62,3.36,5.62,3.37,-3.37,-3.24,-3.16,2.25,2.25,2.25
213.56,5.57,3.34,5.56,3.34,-3.34,-3.20,-3.17,2.22,2.22,2.23
215.69,5.52,3.33,5.50,3.32,-3.32,-3.16,-3.17,2.20,2.19,2.19
217.85,5.45,3.29,5.44,3.29,-3.29,-3.12,-3.18,2.16,2.15,2.16
220.03,5.38,3.26,5.39,3.26,-3.26,-3.08,-3.18,2.11,2.12,2.12
222.23,5.32,3.23,5.33,3.23,-3.23,-3.04,-3.18,2.08,2.09,2.09
224.45,5.28,3.21,5.27,3.20,-3.20,-3.00,-3.18,2.07,2.07,2.06
226.70,5.22,3.19,5.21,3.17,-3.17,-2.96,-3.18,2.04,2.04,2.03
228.96,5.15,3.13,5.15,3.14,-3.14,-2.91,-3.18,2.01,2.01,2.02
231.25,5.09,3.10,5.09,3.10,-3.10,-2.87,-3.17,1.98,1.99,1.99
233.57,5.04,3.07,5.04,3.07,-3.07,-2.83,-3.16,1.97,1.97,1.97
235.90,4.99,3.04,4.97,3.02,-3.02,-2.78,-3.15,1.96,1.95,1.95
238.26,4.92,3.00,4.91,2.98,-2.98,-2.74,-3.14,1.94,1.93,1.92
240.64,4.85,2.92,4.85,2.93,-2.93,-2.69,-3.12,1.91,1.92,1.92
243.05,4.79,2.88,4.79,2.88,-2.88,-2.65,-3.10,1.90,1.90,1.91
245.48,4.73,2.84,4.72,2.83,-2.83,-2.60,-3.07,1.90,1.89,1.89
247.93,4.67,2.79,4.66,2.78,-2.78,-2.55,-3.04,1.89,1.88,1.87
250.41,4.60,2.72,4.59,2.72,-2.72,-2.50,-3.01,1.88,1.87,1.88
252.92,4.53,2.66,4.52,2.66,-2.66,-2.46,-2.97,1.87,1.87,1.87
255.45,4.45,2.59,4.45,2.60,-2.60,-2.41,-2.93,1.85,1.86,1.86
258.00,4.39,2.53,4.38,2.53,-2.53,-2.36,-2.89,1.85,1.85,1.85
260.58,4.32,2.47,4.31,2.47,-2.47,-2.31,-2.84,1.85,1.84,1.85
263.19,4.25,2.40,4.24,2.40,-2.40,-2.26,-2.78,1.85,1.84,1.85
265.82,4.17,2.33,4.17,2.34,-2.34,-2.21,-2.72,1.83,1.83,1.83
268.48,4.09,2.26,4.10,2.27,-2.27,-2.15,-2.66,1.82,1.83,1.83
271.16,4.03,2.20,4.02,2.20,-2.20,-2.10,-2.60,1.82,1.82,1.83
273.87,3.96,2.14,3.95,2.14,-2.14,-2.05,-2.53,1.82,1.82,1.82
276.61,3.89,2.07,3.89,2.07,-2.07,-2.00,-2.46,1.81,1.81,1.82
279.38,3.82,2.02,3.82,2.01,-2.01,-1.95,-2.39,1.81,1.81,1.80
282.17,3.74,1.94,3.75,1.95,-1.95,-1.89,-2.31,1.79,1.81,1.80
284.99,3.68,1.87,3.69,1.88,-1.88,-1.84,-2.23,1.79,1.81,1.81
287.84,3.62,1.81,3.63,1.82,-1.82,-1.78,-2.15,1.80,1.81,1.81
290.72,3.57,1.77,3.56,1.76,-1.76,-1.73,-2.07,1.81,1.81,1.80
293.63,3.50,1.69,3.50,1.70,-1.70,-1.67,-1.99,1.80,1.81,1.81
296.57,3.44,1.63,3.44,1.63,-1.63,-1.62,-1.90,1.81,1.81,1.81
299.53,3.39,1.57,3.38,1.57,-1.57,-1.56,-1.82,1.82,1.81,1.81
302.53,3.34,1.51,3.32,1.50,-1.50,-1.50,-1.73,1.84,1.82,1.82
305.55,3.27,1.45,3.26,1.43,-1.43,-1.45,-1.64,1.83,1.82,1.82
308.61,3.20,1.37,3.19,1.37,-1.37,-1.39,-1.56,1.83,1.83,1.83
311.69,3.13,1.29,3.13,1.30,-1.30,-1.33,-1.47,1.83,1.83,1.83
314.81,3.07,1.23,3.07,1.23,-1.23,-1.27,-1.38,1.83,1.84,1.84
317.96,3.01,1.17,3.00,1.16,-1.16,-1.22,-1.29,1.85,1.84,1.84
321.14,2.95,1.09,2.94,1.09,-1.09,-1.16,-1.20,1.86,1.85,1.85
324.35,2.87,1.02,2.87,1.01,-1.01,-1.10,-1.11,1.85,1.85,1.85
327.59,2.80,0.93,2.80,0.94,-0.94,-1.04,-1.02,1.85,1.86,1.87
330.87,2.74,0.87,2.74,0.87,-0.87,-0.98,-0.94,1.87,1.87,1.87
334.18,2.68,0.81,2.67,0.80,-0.80,-0.92,-0.85,1.88,1.87,1.87
337.52,2.62,0.74,2.60,0.72,-0.72,-0.86,-0.76,1.89,1.88,1.88
340.90,2.54,0.65,2.54,0.65,-0.65,-0.80,-0.67,1.88,1.89,1.89
344.30,2.47,0.57,2.48,0.59,-0.59,-0.73,-0.58,1.88,1.89,1.90
347.75,2.40,0.50,2.42,0.52,-0.52,-0.67,-0.49,1.88,1.90,1.90
351.23,2.34,0.44,2.35,0.45,-0.45,-0.61,-0.41,1.89,1.91,1.90
354.74,2.30,0.37,2.29,0.38,-0.38,-0.55,-0.32,1.92,1.91,1.92
358.28,2.24,0.32,2.23,0.32,-0.32,-0.49,-0.23,1.92,1.92,1.92
361.87,2.18,0.25,2.18,0.25,-0.25,-0.42,-0.15,1.93,1.93,1.92
365.49,2.12,0.19,2.12,0.19,-0.19,-0.36,-0.06,1.93,1.93,1.93
369.14,2.07,0.12,2.06,0.12,-0.12,-0.30,0.03,1.95,1.94,1.95
372.83,2.02,0.06,2.01,0.06,-0.06,-0.23,0.11,1.96,1.95,1.95
376.56,1.96,0.01,1.95,-0.01,0.01,-0.17,0.20,1.96,1.96,1.95
380.33,1.90,-0.06,1.90,-0.07,0.07,-0.10,0.28,1.96,1.96,1.96
384.13,1.84,-0.14,1.84,-0.13,0.13,-0.04,0.37,1.97,1.97,1.97
387.97,1.79,-0.19,1.78,-0.20,0.20,0.03,0.45,1.98,1.98,1.98
391.85,1.73,-0.26,1.73,-0.26,0.26,0.09,0.54,1.99,1.99,1.99
395.77,1.67,-0.33,1.67,-0.33,0.33,0.16,0.62,1.99,2.00,1.99
399.73,1.62,-0.39,1.62,-0.39,0.39,0.22,0.71,2.01,2.01,2.00
403.72,1.57,-0.46,1.56,-0.45,0.45,0.29,0.79,2.02,2.02,2.03
407.76,1.51,-0.52,1.51,-0.52,0.52,0.36,0.87,2.02,2.03,2.03
411.84,1.46,-0.58,1.45,-0.58,0.58,0.42,0.95,2.04,2.04,2.03
415.96,1.40,-0.66,1.40,-0.64,0.64,0.49,1.03,2.04,2.04,2.05
420.12,1.35,-0.70,1.35,-0.71,0.71,0.55,1.11,2.05,2.05,2.05
424.32,1.29,-0.77,1.29,-0.77,0.77,0.62,1.19,2.05,2.06,2.06
428.56,1.25,-0.83,1.24,-0.83,0.83,0.69,1.27,2.07,2.07,2.08
432.85,1.20,-0.89,1.19,-0.89,0.89,0.75,1.34,2.08,2.08,2.08
437.18,1.15,-0.94,1.14,-0.94,0.94,0.82,1.41,2.09,2.09,2.08
441.55,1.10,-0.99,1.09,-1.00,1.00,0.89,1.49,2.10,2.09,2.09
445.96,1.04,-1.06,1.04,-1.06,1.06,0.95,1.56,2.10,2.10,2.10
450.42,0.98,-1.13,0.99,-1.12,1.12,1.02,1.62,2.10,2.11,2.11
454.93,0.93,-1.19,0.94,-1.18,1.18,1.09,1.69,2.11,2.12,2.12
459.48,0.90,-1.23,0.89,-1.23,1.23,1.15,1.75,2.13,2.13,2.12
464.07,0.86,-1.29,0.85,-1.29,1.29,1.22,1.81,2.15,2.14,2.14
468.71,0.82,-1.33,0.80,-1.34,1.34,1.29,1.86,2.16,2.15,2.15
473.40,0.76,-1.40,0.76,-1.40,1.40,1.35,1.92,2.16,2.16,2.16
478.13,0.71,-1.46,0.71,-1.45,1.45,1.42,1.96,2.16,2.17,2.17
482.91,0.66,-1.52,0.67,-1.51,1.51,1.48,2.01,2.16,2.18,2.18
487.74,0.62,-1.57,0.63,-1.56,1.56,1.55,2.05,2.18,2.19,2.19
