frequency,raw,error,smoothed,error_smoothed,equalization,parametric_eq,fixed_band_eq,equalized_raw,equalized_smoothed,target
20.00,18.84,8.20,18.84,8.20,-8.21,-7.92,-3.09,10.63,10.63,10.64
20.20,18.77,8.14,18.77,8.14,-8.14,-7.90,-3.18,10.63,10.62,10.63
20.40,18.70,8.08,18.70,8.08,-8.08,-7.88,-3.27,10.62,10.62,10.62
20.61,18.63,8.02,18.63,8.03,-8.02,-7.86,-3.36,10.61,10.61,10.61
20.81,18.57,7.98,18.57,7.98,-7.97,-7.84,-3.45,10.60,10.60,10.59
21.02,18.51,7.93,18.51,7.93,-7.92,-7.82,-3.55,10.59,10.59,10.58
21.23,18.45,7.88,18.45,7.88,-7.87,-7.80,-3.65,10.58,10.58,10.57
21.44,18.40,7.82,18.39,7.82,-7.82,-7.78,-3.75,10.57,10.57,10.58
21.66,18.34,7.78,18.34,7.78,-7.78,-7.75,-3.86,10.56,10.56,10.56
21.87,18.29,7.73,18.29,7.74,-7.74,-7.73,-3.97,10.54,10.54,10.56
22.09,18.25,7.71,18.24,7.70,-7.71,-7.70,-4.08,10.54,10.53,10.54
22.31,18.20,7.67,18.20,7.67,-7.68,-7.68,-4.19,10.52,10.52,10.53
22.54,18.17,7.65,18.17,7.65,-7.65,-7.65,-4.31,10.52,10.52,10.52
22.76,18.15,7.63,18.14,7.63,-7.63,-7.63,-4.43,10.52,10.52,10.52
22.99,18.12,7.61,18.12,7.61,-7.60,-7.60,-4.55,10.52,10.52,10.51
23.22,18.09,7.59,18.09,7.58,-7.58,-7.58,-4.68,10.51,10.51,10.50
23.45,18.06,7.55,18.05,7.55,-7.55,-7.55,-4.81,10.51,10.50,10.51
23.69,18.02,7.52,18.02,7.52,-7.52,-7.52,-4.94,10.50,10.50,10.50
23.92,17.99,7.50,17.99,7.49,-7.49,-7.49,-5.07,10.49,10.49,10.49
24.16,17.96,7.46,17.95,7.46,-7.46,-7.46,-5.21,10.50,10.49,10.50
24.40,17.92,7.42,17.92,7.43,-7.43,-7.44,-5.35,10.49,10.49,10.50
24.65,17.89,7.40,17.88,7.39,-7.40,-7.41,-5.49,10.49,10.49,10.49
24.89,17.85,7.36,17.85,7.37,-7.37,-7.38,-5.63,10.48,10.48,10.49
25.14,17.82,7.34,17.82,7.34,-7.33,-7.35,-5.77,10.48,10.48,10.48
25.39,17.79,7.31,17.78,7.31,-7.30,-7.32,-5.92,10.48,10.48,10.48
25.65,17.75,7.27,17.75,7.27,-7.27,-7.29,-6.06,10.48,10.48,10.48
25.91,17.72,7.24,17.72,7.24,-7.24,-7.26,-6.21,10.48,10.48,10.48
26.16,17.69,7.20,17.68,7.20,-7.20,-7.23,-6.36,10.48,10.48,10.49
26.43,17.65,7.17,17.65,7.17,-7.17,-7.20,-6.50,10.48,10.48,10.48
26.69,17.62,7.14,17.61,7.14,-7.14,-7.17,-6.65,10.48,10.48,10.48
26.96,17.58,7.10,17.58,7.10,-7.10,-7.13,-6.79,10.47,10.48,10.48
27.23,17.55,7.07,17.55,7.07,-7.07,-7.10,-6.93,10.48,10.48,10.48
27.50,17.52,7.04,17.51,7.03,-7.03,-7.07,-7.07,10.48,10.48,10.48
27.77,17.48,6.99,17.48,7.00,-7.00,-7.04,-7.20,10.48,10.48,10.49
28.05,17.45,6.97,17.45,6.96,-6.96,-7.01,-7.33,10.49,10.49,10.48
28.33,17.42,6.93,17.41,6.93,-6.92,-6.98,-7.46,10.49,10.49,10.49
28.62,17.38,6.89,17.38,6.89,-6.89,-6.95,-7.57,10.49,10.49,10.49
28.90,17.35,6.85,17.34,6.85,-6.85,-6.92,-7.68,10.49,10.49,10.50
29.19,17.31,6.81,17.31,6.82,-6.82,-6.89,-7.78,10.49,10.49,10.50
29.48,17.28,6.79,17.28,6.78,-6.79,-6.85,-7.87,10.49,10.49,10.49
29.78,17.25,6.76,17.24,6.76,-6.76,-6.82,-7.95,10.49,10.49,10.49
30.08,17.21,6.72,17.21,6.73,-6.73,-6.79,-8.03,10.48,10.48,10.49
30.38,17.18,6.71,17.18,6.70,-6.70,-6.76,-8.08,10.48,10.48,10.47
30.68,17.15,6.68,17.14,6.67,-6.67,-6.73,-8.13,10.48,10.47,10.47
30.99,17.11,6.64,17.11,6.64,-6.64,-6.70,-8.17,10.46,10.47,10.47
31.30,17.08,6.61,17.08,6.61,-6.62,-6.67,-8.19,10.46,10.46,10.47
31.61,17.05,6.59,17.04,6.59,-6.59,-6.64,-8.20,10.46,10.45,10.46
31.93,17.01,6.57,17.01,6.56,-6.56,-6.61,-8.20,10.45,10.45,10.44
32.24,16.98,6.53,16.97,6.54,-6.53,-6.58,-8.19,10.44,10.44,10.45
32.57,16.94,6.51,16.94,6.51,-6.51,-6.55,-8.17,10.43,10.43,10.43
32.89,16.91,6.48,16.91,6.48,-6.48,-6.52,-8.13,10.43,10.43,10.43
33.22,16.88,6.46,16.87,6.45,-6.45,-6.49,-8.09,10.43,10.42,10.42
33.55,16.84,6.42,16.84,6.42,-6.42,-6.46,-8.03,10.41,10.41,10.42
33.89,16.80,6.39,16.80,6.39,-6.40,-6.44,-7.97,10.40,10.40,10.41
34.23,16.77,6.38,16.76,6.37,-6.37,-6.41,-7.90,10.40,10.39,10.39
34.57,16.73,6.34,16.73,6.35,-6.35,-6.38,-7.83,10.38,10.38,10.39
34.92,16.70,6.33,16.70,6.32,-6.32,-6.35,-7.74,10.37,10.38,10.37
35.27,16.68,6.29,16.67,6.30,-6.30,-6.32,-7.66,10.37,10.37,10.39
35.62,16.65,6.29,16.65,6.28,-6.29,-6.30,-7.56,10.36,10.36,10.36
35.97,16.63,6.27,16.62,6.27,-6.27,-6.27,-7.47,10.36,10.35,10.36
36.33,16.60,6.26,16.60,6.26,-6.26,-6.24,-7.37,10.34,10.34,10.34
36.70,16.57,6.25,16.57,6.25,-6.25,-6.22,-7.28,10.32,10.32,10.32
37.06,16.54,6.24,16.53,6.23,-6.24,-6.19,-7.18,10.30,10.30,10.30
37.43,16.50,6.22,16.50,6.22,-6.23,-6.17,-7.08,10.27,10.28,10.28
37.81,16.48,6.21,16.47,6.21,-6.21,-6.14,-6.98,10.26,10.26,10.27
38.19,16.45,6.21,16.45,6.20,-6.20,-6.12,-6.89,10.25,10.25,10.24
38.57,16.42,6.20,16.42,6.19,-6.19,-6.09,-6.79,10.23,10.23,10.22
38.95,16.38,6.17,16.37,6.17,-6.17,-6.07,-6.70,10.20,10.20,10.21
39.34,16.33,6.15,16.33,6.15,-6.15,-6.05,-6.61,10.17,10.17,10.18
39.74,16.28,6.13,16.28,6.13,-6.13,-6.02,-6.52,10.14,10.15,10.15
40.14,16.24,6.11,16.24,6.11,-6.11,-6.00,-6.43,10.13,10.13,10.13
40.54,16.20,6.09,16.19,6.09,-6.08,-5.98,-6.35,10.12,10.11,10.11
40.94,16.15,6.07,16.15,6.06,-6.05,-5.96,-6.27,10.10,10.10,10.08
41.35,16.09,6.02,16.09,6.03,-6.02,-5.93,-6.20,10.07,10.07,10.07
41.76,16.04,6.00,16.03,5.99,-5.99,-5.91,-6.13,10.04,10.04,10.04
42.18,15.97,5.94,15.97,5.95,-5.97,-5.89,-6.06,10.00,10.01,10.03
42.60,15.92,5.92,15.92,5.92,-5.94,-5.87,-6.00,9.98,9.98,10.00
43.03,15.88,5.90,15.88,5.90,-5.91,-5.85,-5.94,9.97,9.97,9.98
43.46,15.84,5.90,15.83,5.89,-5.88,-5.83,-5.89,9.96,9.96,9.94
43.90,15.79,5.87,15.79,5.87,-5.85,-5.82,-5.84,9.93,9.93,9.92
44.33,15.74,5.85,15.74,5.84,-5.83,-5.80,-5.79,9.90,9.90,9.89
44.78,15.68,5.81,15.67,5.81,-5.81,-5.78,-5.75,9.86,9.86,9.87
45.23,15.62,5.77,15.62,5.78,-5.80,-5.76,-5.71,9.82,9.82,9.85
45.68,15.56,5.76,15.57,5.76,-5.78,-5.74,-5.68,9.78,9.79,9.80
46.13,15.53,5.76,15.52,5.76,-5.76,-5.73,-5.65,9.76,9.76,9.77
46.60,15.49,5.76,15.49,5.76,-5.75,-5.71,-5.62,9.74,9.74,9.73
47.06,15.45,5.75,15.45,5.75,-5.74,-5.69,-5.60,9.71,9.71,9.70
47.53,15.40,5.74,15.39,5.74,-5.73,-5.68,-5.58,9.66,9.66,9.66
48.01,15.34,5.73,15.34,5.73,-5.73,-5.66,-5.57,9.61,9.61,9.61
48.49,15.28,5.71,15.28,5.72,-5.73,-5.65,-5.56,9.55,9.56,9.57
48.97,15.24,5.72,15.24,5.71,-5.72,-5.64,-5.55,9.51,9.51,9.52
49.46,15.20,5.71,15.20,5.72,-5.72,-5.62,-5.55,9.48,9.48,9.49
49.96,15.16,5.73,15.16,5.72,-5.71,-5.61,-5.55,9.45,9.45,9.43
50.46,15.12,5.72,15.11,5.71,-5.71,-5.60,-5.55,9.41,9.40,9.40
50.96,15.06,5.70,15.06,5.71,-5.70,-5.58,-5.56,9.36,9.36,9.36
51.47,15.01,5.69,15.01,5.69,-5.70,-5.57,-5.57,9.31,9.31,9.32
51.99,14.96,5.69,14.96,5.68,-5.69,-5.56,-5.58,9.27,9.27,9.27
52.51,14.92,5.68,14.92,5.68,-5.69,-5.55,-5.59,9.23,9.23,9.24
53.03,14.88,5.67,14.88,5.68,-5.68,-5.54,-5.60,9.20,9.20,9.21
53.56,14.84,5.68,14.83,5.67,-5.67,-5.53,-5.62,9.17,9.16,9.16
54.10,14.77,5.66,14.78,5.66,-5.66,-5.52,-5.63,9.11,9.12,9.11
54.64,14.72,5.65,14.72,5.65,-5.65,-5.51,-5.65,9.07,9.07,9.07
55.18,14.67,5.64,14.66,5.64,-5.63,-5.50,-5.66,9.03,9.03,9.03
55.74,14.61,5.63,14.61,5.62,-5.62,-5.49,-5.68,8.99,8.99,8.98
56.29,14.55,5.59,14.55,5.60,-5.60,-5.48,-5.70,8.95,8.95,8.96
56.86,14.49,5.57,14.49,5.58,-5.58,-5.47,-5.71,8.91,8.91,8.92
57.42,14.44,5.57,14.43,5.56,-5.56,-5.46,-5.72,8.88,8.88,8.87
58.00,14.38,5.55,14.38,5.54,-5.54,-5.45,-5.73,8.84,8.84,8.83
58.58,14.32,5.52,14.32,5.52,-5.52,-5.45,-5.74,8.80,8.80,8.80
59.16,14.26,5.49,14.26,5.49,-5.51,-5.44,-5.75,8.75,8.75,8.77
59.76,14.20,5.48,14.20,5.48,-5.49,-5.43,-5.75,8.70,8.70,8.72
60.35,14.14,5.47,14.14,5.47,-5.49,-5.42,-5.75,8.65,8.65,8.67
60.96,14.09,5.48,14.09,5.48,-5.48,-5.42,-5.74,8.61,8.61,8.61
61.57,14.04,5.49,14.03,5.48,-5.48,-5.41,-5.74,8.56,8.56,8.55
62.18,13.98,5.49,13.97,5.49,-5.48,-5.41,-5.73,8.50,8.50,8.49
62.80,13.91,5.48,13.91,5.48,-5.47,-5.40,-5.71,8.43,8.44,8.43
63.43,13.85,5.47,13.85,5.47,-5.47,-5.40,-5.69,8.38,8.38,8.38
64.07,13.79,5.46,13.79,5.46,-5.47,-5.39,-5.67,8.32,8.32,8.33
64.71,13.74,5.46,13.73,5.46,-5.46,-5.39,-5.64,8.28,8.28,8.28
65.35,13.68,5.46,13.67,5.45,-5.45,-5.38,-5.61,8.23,8.23,8.22
66.01,13.61,5.44,13.61,5.44,-5.44,-5.38,-5.58,8.17,8.17,8.17
66.67,13.54,5.41,13.54,5.42,-5.42,-5.37,-5.54,8.11,8.11,8.13
67.33,13.47,5.41,13.47,5.41,-5.41,-5.37,-5.51,8.05,8.06,8.06
68.01,13.42,5.41,13.41,5.40,-5.40,-5.36,-5.46,8.02,8.01,8.01
68.69,13.36,5.40,13.35,5.40,-5.39,-5.36,-5.42,7.97,7.96,7.96
69.37,13.29,5.38,13.29,5.38,-5.38,-5.36,-5.38,7.90,7.90,7.91
70.07,13.22,5.37,13.22,5.37,-5.38,-5.35,-5.33,7.84,7.84,7.85
70.77,13.15,5.37,13.15,5.36,-5.38,-5.35,-5.28,7.77,7.77,7.78
71.48,13.09,5.36,13.09,5.37,-5.38,-5.34,-5.23,7.71,7.72,7.73
72.19,13.05,5.38,13.04,5.38,-5.38,-5.34,-5.19,7.67,7.66,7.67
72.91,13.00,5.40,12.99,5.39,-5.38,-5.34,-5.14,7.62,7.61,7.60
73.64,12.94,5.39,12.94,5.39,-5.38,-5.33,-5.09,7.55,7.55,7.55
74.38,12.88,5.39,12.88,5.39,-5.38,-5.33,-5.04,7.49,7.49,7.49
75.12,12.82,5.38,12.82,5.38,-5.38,-5.33,-5.00,7.43,7.44,7.44
75.87,12.77,5.38,12.77,5.38,-5.38,-5.33,-4.95,7.38,7.38,7.39
76.63,12.72,5.39,12.71,5.38,-5.38,-5.32,-4.91,7.34,7.33,7.33
77.40,12.65,5.36,12.65,5.37,-5.37,-5.32,-4.87,7.28,7.28,7.29
78.17,12.59,5.36,12.59,5.36,-5.36,-5.32,-4.83,7.23,7.23,7.23
78.95,12.53,5.34,12.53,5.34,-5.35,-5.31,-4.79,7.18,7.18,7.19
79.74,12.48,5.34,12.47,5.34,-5.33,-5.31,-4.76,7.14,7.14,7.14
80.54,12.42,5.33,12.41,5.32,-5.32,-5.31,-4.72,7.10,7.09,7.09
81.35,12.35,5.32,12.34,5.31,-5.31,-5.30,-4.69,7.04,7.04,7.03
82.16,12.27,5.27,12.27,5.28,-5.29,-5.30,-4.67,6.97,6.98,7.00
82.98,12.21,5.27,12.21,5.27,-5.28,-5.30,-4.65,6.93,6.93,6.94
83.81,12.15,5.26,12.15,5.26,-5.27,-5.29,-4.63,6.88,6.88,6.89
84.65,12.09,5.26,12.08,5.26,-5.25,-5.29,-4.61,6.84,6.83,6.83
85.50,12.02,5.25,12.02,5.24,-5.24,-5.29,-4.60,6.78,6.78,6.77
86.35,11.95,5.23,11.95,5.23,-5.23,-5.28,-4.59,6.72,6.72,6.72
87.22,11.88,5.21,11.88,5.21,-5.21,-5.28,-4.58,6.66,6.66,6.67
88.09,11.81,5.20,11.81,5.20,-5.20,-5.27,-4.58,6.60,6.61,6.61
88.97,11.75,5.20,11.74,5.19,-5.19,-5.27,-4.58,6.56,6.55,6.55
89.86,11.68,5.18,11.67,5.18,-5.18,-5.26,-4.58,6.50,6.49,6.50
90.76,11.60,5.16,11.60,5.17,-5.17,-5.26,-4.59,6.43,6.43,6.44
91.66,11.53,5.16,11.53,5.16,-5.16,-5.25,-4.60,6.37,6.38,6.37
92.58,11.47,5.15,11.47,5.15,-5.15,-5.25,-4.61,6.32,6.32,6.32
93.51,11.41,5.14,11.40,5.14,-5.14,-5.24,-4.63,6.27,6.26,6.27
94.44,11.34,5.13,11.34,5.13,-5.14,-5.24,-4.65,6.20,6.20,6.21
95.39,11.27,5.13,11.27,5.13,-5.13,-5.23,-4.67,6.14,6.14,6.14
96.34,11.20,5.13,11.20,5.13,-5.13,-5.22,-4.70,6.07,6.07,6.07
97.30,11.13,5.12,11.13,5.13,-5.13,-5.22,-4.73,6.00,6.00,6.01
98.28,11.07,5.13,11.07,5.13,-5.13,-5.21,-4.76,5.94,5.94,5.94
99.26,11.01,5.13,11.01,5.13,-5.12,-5.20,-4.80,5.88,5.88,5.88
100.25,10.95,5.13,10.94,5.12,-5.12,-5.20,-4.83,5.83,5.82,5.82
101.25,10.88,5.11,10.88,5.12,-5.12,-5.19,-4.87,5.76,5.77,5.77
102.27,10.82,5.11,10.82,5.11,-5.11,-5.18,-4.91,5.71,5.71,5.71
103.29,10.76,5.11,10.75,5.10,-5.10,-5.17,-4.95,5.66,5.65,5.65
104.32,10.69,5.09,10.68,5.09,-5.09,-5.16,-4.99,5.60,5.59,5.60
105.37,10.61,5.07,10.62,5.08,-5.08,-5.15,-5.04,5.53,5.54,5.54
106.42,10.55,5.06,10.55,5.06,-5.06,-5.14,-5.08,5.48,5.48,5.49
107.48,10.49,5.06,10.48,5.05,-5.05,-5.13,-5.12,5.44,5.43,5.43
108.56,10.42,5.04,10.41,5.04,-5.04,-5.12,-5.17,5.38,5.38,5.38
109.64,10.34,5.02,10.34,5.03,-5.03,-5.11,-5.21,5.31,5.32,5.32
110.74,10.28,5.02,10.27,5.01,-5.02,-5.10,-5.25,5.26,5.26,5.26
111.85,10.21,5.01,10.21,5.00,-5.01,-5.09,-5.29,5.20,5.20,5.20
112.97,10.14,4.99,10.14,4.99,-5.00,-5.08,-5.33,5.14,5.14,5.15
114.10,10.07,4.98,10.07,4.99,-4.99,-5.06,-5.36,5.08,5.08,5.09
115.24,10.00,4.99,10.00,4.98,-4.98,-5.05,-5.39,5.02,5.02,5.01
116.39,9.93,4.98,9.93,4.98,-4.97,-5.04,-5.42,4.96,4.96,4.95
117.55,9.86,4.97,9.86,4.97,-4.96,-5.02,-5.44,4.90,4.90,4.89
118.73,9.79,4.96,9.79,4.95,-4.95,-5.01,-5.46,4.84,4.84,4.83
119.92,9.72,4.93,9.71,4.93,-4.93,-5.00,-5.47,4.79,4.78,4.79
121.12,9.64,4.90,9.64,4.91,-4.92,-4.98,-5.48,4.72,4.73,4.74
122.33,9.58,4.90,9.58,4.89,-4.90,-4.96,-5.48,4.68,4.68,4.68
123.55,9.52,4.89,9.51,4.88,-4.89,-4.95,-5.48,4.63,4.63,4.63
124.79,9.45,4.87,9.45,4.87,-4.87,-4.93,-5.47,4.58,4.57,4.58
126.03,9.38,4.86,9.38,4.86,-4.86,-4.91,-5.46,4.52,4.52,4.52
127.29,9.31,4.84,9.31,4.85,-4.85,-4.90,-5.44,4.46,4.46,4.47
128.57,9.25,4.85,9.24,4.84,-4.84,-4.88,-5.41,4.40,4.40,4.40
129.85,9.18,4.83,9.18,4.83,-4.83,-4.86,-5.38,4.34,4.35,4.35
131.15,9.12,4.83,9.12,4.83,-4.83,-4.84,-5.34,4.29,4.29,4.29
132.46,9.06,4.82,9.05,4.82,-4.81,-4.82,-5.30,4.24,4.24,4.24
133.79,8.99,4.81,8.99,4.81,-4.80,-4.80,-5.25,4.18,4.18,4.18
135.12,8.92,4.79,8.92,4.79,-4.79,-4.78,-5.20,4.13,4.13,4.13
136.48,8.85,4.77,8.85,4.77,-4.77,-4.76,-5.15,4.07,4.08,4.08
137.84,8.78,4.75,8.78,4.75,-4.75,-4.74,-5.09,4.02,4.02,4.03
139.22,8.71,4.74,8.70,4.73,-4.73,-4.71,-5.02,3.98,3.97,3.97
140.61,8.63,4.70,8.63,4.71,-4.71,-4.69,-4.96,3.92,3.92,3.93
142.02,8.56,4.69,8.56,4.68,-4.68,-4.67,-4.89,3.88,3.88,3.87
143.44,8.49,4.66,8.49,4.66,-4.66,-4.64,-4.82,3.83,3.83,3.83
144.87,8.42,4.63,8.41,4.63,-4.63,-4.62,-4.75,3.79,3.79,3.79
146.32,8.34,4.60,8.34,4.60,-4.60,-4.59,-4.68,3.73,3.74,3.74
147.78,8.27,4.57,8.26,4.57,-4.57,-4.57,-4.61,3.69,3.69,3.70
149.26,8.19,4.54,8.19,4.54,-4.55,-4.54,-4.54,3.64,3.65,3.65
150.75,8.13,4.52,8.13,4.52,-4.52,-4.52,-4.47,3.61,3.61,3.61
152.26,8.07,4.50,8.06,4.49,-4.49,-4.49,-4.40,3.58,3.57,3.57
153.78,8.00,4.47,7.99,4.47,-4.46,-4.46,-4.33,3.54,3.53,3.53
155.32,7.92,4.43,7.92,4.43,-4.43,-4.43,-4.26,3.48,3.49,3.49
156.88,7.84,4.40,7.84,4.40,-4.40,-4.40,-4.19,3.43,3.44,3.44
158.44,7.77,4.38,7.77,4.37,-4.38,-4.37,-4.12,3.39,3.39,3.39
160.03,7.70,4.35,7.69,4.34,-4.35,-4.34,-4.06,3.35,3.35,3.35
161.63,7.62,4.31,7.62,4.31,-4.32,-4.31,-4.00,3.30,3.30,3.31
163.24,7.54,4.28,7.54,4.29,-4.29,-4.28,-3.94,3.25,3.25,3.26
164.88,7.47,4.26,7.47,4.26,-4.26,-4.25,-3.88,3.21,3.21,3.21
166.53,7.41,4.25,7.40,4.24,-4.23,-4.22,-3.82,3.18,3.17,3.16
168.19,7.33,4.20,7.32,4.21,-4.20,-4.19,-3.77,3.13,3.12,3.13
169.87,7.24,4.17,7.24,4.17,-4.17,-4.16,-3.72,3.07,3.07,3.07
171.57,7.16,4.14,7.16,4.14,-4.14,-4.12,-3.67,3.02,3.02,3.02
173.29,7.09,4.11,7.08,4.11,-4.11,-4.09,-3.63,2.98,2.97,2.98
175.02,7.01,4.08,7.01,4.08,-4.08,-4.05,-3.59,2.93,2.92,2.93
176.77,6.93,4.05,6.93,4.05,-4.05,-4.02,-3.55,2.88,2.88,2.88
178.54,6.85,4.01,6.85,4.02,-4.02,-3.98,-3.51,2.83,2.83,2.84
180.32,6.78,4.00,6.78,3.99,-3.99,-3.95,-3.48,2.79,2.79,2.78
182.13,6.71,3.96,6.70,3.96,-3.96,-3.91,-3.45,2.75,2.74,2.75
183.95,6.63,3.93,6.62,3.93,-3.92,-3.87,-3.42,2.70,2.70,2.70
185.79,6.54,3.89,6.55,3.89,-3.89,-3.84,-3.39,2.65,2.66,2.65
187.65,6.47,3.86,6.47,3.86,-3.86,-3.80,-3.37,2.61,2.61,2.61
189.52,6.40,3.83,6.39,3.82,-3.82,-3.76,-3.35,2.58,2.57,2.57
191.42,6.31,3.78,6.31,3.78,-3.79,-3.72,-3.33,2.52,2.52,2.53
193.33,6.23,3.74,6.23,3.74,-3.75,-3.68,-3.31,2.48,2.48,2.49
195.27,6.15,3.71,6.15,3.71,-3.72,-3.64,-3.30,2.43,2.43,2.44
197.22,6.08,3.69,6.08,3.68,-3.68,-3.60,-3.29,2.39,2.39,2.39
199.19,6.01,3.65,6.01,3.65,-3.65,-3.56,-3.28,2.36,2.36,2.36
201.18,5.94,3.62,5.94,3.62,-3.61,-3.52,-3.27,2.32,2.33,2.32
203.19,5.88,3.59,5.88,3.58,-3.58,-3.48,-3.26,2.30,2.30,2.29
205.23,5.82,3.55,5.81,3.55,-3.55,-3.44,-3.25,2.27,2.26,2.27
207.28,5.75,3.51,5.75,3.51,-3.52,-3.40,-3.25,2.23,2.23,2.24
209.35,5.68,3.48,5.68,3.48,-3.48,-3.35,-3.24,2.19,2.20,2.20
211.44,5.62,3.45,5.62,3.45,-3.45,-3.31,-3.24,2.16,2.17,2.17
213.56,5.57,3.42,5.57,3.42,-3.42,-3.27,-3.24,2.15,2.15,2.15
215.69,5.52,3.40,5.51,3.39,-3.39,-3.22,-3.23,2.13,2.12,2.12
217.85,5.45,3.36,5.45,3.36,-3.36,-3.18,-3.23,2.09,2.09,2.09
220.03,5.38,3.32,5.38,3.32,-3.32,-3.13,-3.22,2.05,2.06,2.06
222.23,5.32,3.29,5.32,3.29,-3.29,-3.09,-3.22,2.03,2.03,2.03
224.45,5.28,3.26,5.27,3.26,-3.26,-3.04,-3.21,2.02,2.01,2.02
226.70,5.22,3.23,5.21,3.22,-3.22,-3.00,-3.21,2.00,1.99,1.99
228.96,5.15,3.17,5.15,3.18,-3.18,-2.95,-3.20,1.97,1.97,1.98
231.25,5.09,3.13,5.09,3.13,-3.14,-2.90,-3.18,1.95,1.95,1.96
233.57,5.04,3.10,5.04,3.10,-3.10,-2.86,-3.17,1.94,1.94,1.94
235.90,4.99,3.06,4.98,3.06,-3.05,-2.81,-3.15,1.93,1.93,1.93
238.26,4.92,3.02,4.92,3.01,-3.00,-2.76,-3.13,1.91,1.91,1.90
240.64,4.85,2.94,4.85,2.95,-2.95,-2.71,-3.11,1.89,1.90,1.91
243.05,4.79,2.90,4.79,2.90,-2.90,-2.66,-3.08,1.89,1.89,1.89
245.48,4.73,2.85,4.73,2.85,-2.85,-2.61,-3.05,1.88,1.88,1.88
247.93,4.67,2.80,4.66,2.79,-2.79,-2.56,-3.02,1.88,1.88,1.87
250.41,4.60,2.72,4.60,2.73,-2.72,-2.51,-2.98,1.87,1.87,1.88
252.92,4.53,2.66,4.52,2.66,-2.66,-2.46,-2.94,1.87,1.86,1.87
255.45,4.45,2.59,4.45,2.59,-2.59,-2.41,-2.90,1.85,1.86,1.86
258.00,4.39,2.53,4.39,2.53,-2.53,-2.36,-2.85,1.86,1.86,1.86
260.58,4.32,2.46,4.32,2.46,-2.46,-2.31,-2.79,1.86,1.86,1.86
263.19,4.25,2.39,4.24,2.39,-2.39,-2.26,-2.74,1.86,1.86,1.86
265.82,4.17,2.32,4.17,2.32,-2.32,-2.21,-2.68,1.85,1.85,1.85
268.48,4.09,2.24,4.09,2.25,-2.25,-2.15,-2.61,1.84,1.85,1.85
271.16,4.03,2.18,4.02,2.17,-2.18,-2.10,-2.55,1.85,1.84,1.85
273.87,3.96,2.11,3.96,2.11,-2.11,-2.05,-2.48,1.85,1.85,1.85
276.61,3.89,2.04,3.89,2.05,-2.04,-1.99,-2.41,1.84,1.84,1.85
279.38,3.82,1.99,3.81,1.98,-1.98,-1.94,-2.33,1.84,1.84,1.83
282.17,3.74,1.91,3.74,1.91,-1.91,-1.89,-2.26,1.83,1.83,1.83
284.99,3.68,1.84,3.68,1.84,-1.84,-1.83,-2.18,1.83,1.83,1.84
287.84,3.62,1.77,3.62,1.78,-1.78,-1.78,-2.10,1.84,1.84,1.85
290.72,3.57,1.73,3.56,1.71,-1.72,-1.72,-2.01,1.85,1.84,1.84
293.63,3.50,1.65,3.50,1.65,-1.65,-1.66,-1.93,1.84,1.85,1.85
296.57,3.44,1.58,3.44,1.59,-1.59,-1.61,-1.85,1.85,1.86,1.86
299.53,3.39,1.53,3.39,1.52,-1.52,-1.55,-1.76,1.86,1.86,1.86
302.53,3.34,1.46,3.33,1.46,-1.46,-1.49,-1.67,1.88,1.87,1.88
305.55,3.27,1.40,3.27,1.39,-1.39,-1.44,-1.59,1.88,1.88,1.87
308.61,3.20,1.32,3.20,1.32,-1.32,-1.38,-1.50,1.88,1.88,1.88
311.69,3.13,1.24,3.13,1.25,-1.25,-1.32,-1.41,1.88,1.88,1.89
314.81,3.07,1.18,3.07,1.18,-1.18,-1.26,-1.32,1.89,1.89,1.89
317.96,3.01,1.11,3.01,1.11,-1.10,-1.21,-1.23,1.90,1.90,1.90
321.14,2.95,1.04,2.94,1.03,-1.03,-1.15,-1.14,1.92,1.91,1.91
324.35,2.87,0.96,2.87,0.95,-0.96,-1.09,-1.05,1.91,1.91,1.91
327.59,2.80,0.86,2.80,0.88,-0.88,-1.03,-0.96,1.91,1.92,1.94
330.87,2.74,0.81,2.74,0.81,-0.81,-0.97,-0.88,1.93,1.93,1.93
334.18,2.68,0.74,2.68,0.74,-0.73,-0.91,-0.79,1.95,1.94,1.94
337.52,2.62,0.68,2.61,0.67,-0.66,-0.85,-0.70,1.96,1.95,1.94
340.90,2.54,0.58,2.54,0.58,-0.58,-0.78,-0.61,1.95,1.96,1.96
344.30,2.47,0.50,2.47,0.51,-0.51,-0.72,-0.52,1.96,1.95,1.97
347.75,2.40,0.43,2.40,0.43,-0.44,-0.66,-0.43,1.96,1.96,1.97
351.23,2.34,0.37,2.34,0.37,-0.37,-0.60,-0.34,1.97,1.97,1.97
354.74,2.30,0.30,2.29,0.31,-0.30,-0.54,-0.26,1.99,1.99,2.00
358.28,2.24,0.25,2.24,0.24,-0.24,-0.47,-0.17,2.00,2.00,1.99
361.87,2.18,0.18,2.18,0.18,-0.17,-0.41,-0.08,2.00,2.00,2.00
365.49,2.12,0.11,2.12,0.11,-0.11,-0.35,0.01,2.01,2.01,2.01
369.14,2.07,0.04,2.07,0.05,-0.05,-0.28,0.09,2.02,2.02,2.03
372.83,2.02,-0.01,2.01,-0.01,0.01,-0.22,0.18,2.03,2.03,2.03
376.56,1.96,-0.07,1.96,-0.08,0.08,-0.16,0.27,2.04,2.04,2.03
380.33,1.90,-0.14,1.90,-0.14,0.14,-0.09,0.35,2.04,2.04,2.04
384.13,1.84,-0.22,1.84,-0.21,0.21,-0.03,0.44,2.05,2.05,2.06
387.97,1.79,-0.27,1.78,-0.28,0.28,0.04,0.53,2.06,2.06,2.06
391.85,1.73,-0.34,1.73,-0.34,0.34,0.11,0.61,2.07,2.07,2.07
395.77,1.67,-0.41,1.67,-0.41,0.41,0.17,0.70,2.07,2.08,2.08
399.73,1.62,-0.47,1.62,-0.48,0.47,0.24,0.78,2.09,2.09,2.09
403.72,1.57,-0.55,1.56,-0.54,0.54,0.30,0.87,2.11,2.10,2.12
407.76,1.51,-0.60,1.51,-0.61,0.61,0.37,0.95,2.11,2.12,2.11
411.84,1.46,-0.66,1.45,-0.67,0.67,0.44,1.03,2.13,2.13,2.12
415.96,1.40,-0.74,1.40,-0.73,0.73,0.50,1.12,2.13,2.13,2.14
420.12,1.35,-0.79,1.34,-0.80,0.79,0.57,1.20,2.14,2.14,2.14
424.32,1.29,-0.86,1.29,-0.86,0.85,0.64,1.28,2.14,2.15,2.15
428.56,1.25,-0.92,1.24,-0.92,0.91,0.71,1.35,2.16,2.16,2.17
432.85,1.20,-0.98,1.20,-0.97,0.98,0.78,1.43,2.17,2.17,2.18
437.18,1.15,-1.02,1.15,-1.03,1.04,0.84,1.51,2.18,2.18,2.17
441.55,1.10,-1.08,1.09,-1.09,1.09,0.91,1.58,2.19,2.19,2.18
445.96,1.04,-1.15,1.03,-1.15,1.15,0.98,1.65,2.19,2.19,2.19
450.42,0.98,-1.22,0.98,-1.22,1.21,1.05,1.72,2.19,2.19,2.20
454.93,0.93,-1.28,0.93,-1.28,1.27,1.12,1.78,2.19,2.20,2.21
459.48,0.90,-1.32,0.89,-1.33,1.33,1.19,1.85,2.22,2.22,2.22
464.07,0.86,-1.38,0.86,-1.38,1.38,1.25,1.91,2.24,2.24,2.24
468.71,0.82,-1.43,0.81,-1.43,1.44,1.32,1.96,2.26,2.25,2.25
473.40,0.76,-1.49,0.76,-1.49,1.50,1.39,2.02,2.25,2.26,2.25
478.13,0.71,-1.55,0.71,-1.55,1.55,1.46,2.07,2.25,2.26,2.26
482.91,0.66,-1.61,0.66,-1.61,1.60,1.53,2.11,2.26,2.26,2.27
487.74,0.62,-1.66,0.62,-1.66,1.65,1.59,2.16,2.27,2.27,2.28
492.62,0.58,-1.71,0.58,-1.71,1.71,1.66,2.19,2.28,2.29,2.29
497.55,0.55,-1.75,0.54,-1.75,1.76,1.73,2.23,2.31,2.30,2.30
