frequency,raw,error,smoothed,error_smoothed,equalization,parametric_eq,fixed_band_eq,equalized_raw,equalized_smoothed,target
20.00,3.28,-0.37,3.29,-0.39,0.39,-0.37,-0.48,3.68,3.69,3.66
20.20,3.35,-0.35,3.35,-0.37,0.37,-0.38,-0.49,3.72,3.72,3.71
20.40,3.42,-0.34,3.41,-0.34,0.34,-0.39,-0.50,3.76,3.76,3.75
20.61,3.48,-0.30,3.48,-0.31,0.31,-0.39,-0.51,3.80,3.79,3.78
20.81,3.56,-0.28,3.53,-0.28,0.28,-0.40,-0.53,3.84,3.82,3.83
21.02,3.61,-0.26,3.59,-0.25,0.25,-0.41,-0.54,3.87,3.85,3.87
21.23,3.65,-0.24,3.65,-0.22,0.22,-0.42,-0.55,3.87,3.87,3.89
21.44,3.70,-0.21,3.71,-0.18,0.18,-0.43,-0.57,3.89,3.89,3.91
21.66,3.74,-0.19,3.77,-0.14,0.14,-0.44,-0.58,3.89,3.91,3.93
21.87,3.79,-0.16,3.83,-0.11,0.11,-0.44,-0.60,3.89,3.93,3.94
22.09,3.84,-0.12,3.88,-0.06,0.06,-0.45,-0.61,3.90,3.95,3.96
22.31,3.93,-0.04,3.94,-0.02,0.02,-0.46,-0.63,3.95,3.96,3.97
22.54,4.00,0.03,3.99,0.03,-0.03,-0.47,-0.64,3.98,3.97,3.97
22.76,4.09,0.12,4.05,0.08,-0.08,-0.48,-0.66,4.01,3.97,3.97
22.99,4.17,0.22,4.10,0.13,-0.13,-0.49,-0.67,4.04,3.97,3.96
23.22,4.19,0.24,4.16,0.19,-0.19,-0.50,-0.69,4.00,3.97,3.96
23.45,4.22,0.27,4.22,0.25,-0.25,-0.51,-0.71,3.98,3.97,3.96
23.69,4.25,0.29,4.28,0.30,-0.30,-0.52,-0.72,3.95,3.97,3.97
23.92,4.28,0.31,4.33,0.36,-0.36,-0.53,-0.74,3.92,3.97,3.96
24.16,4.34,0.36,4.38,0.41,-0.41,-0.54,-0.76,3.93,3.97,3.97
24.40,4.41,0.42,4.43,0.46,-0.46,-0.56,-0.78,3.95,3.97,3.98
24.65,4.47,0.50,4.47,0.50,-0.50,-0.57,-0.80,3.97,3.97,3.97
24.89,4.55,0.57,4.51,0.54,-0.54,-0.58,-0.82,4.01,3.97,3.97
25.14,4.58,0.61,4.54,0.57,-0.57,-0.59,-0.84,4.01,3.97,3.97
25.39,4.62,0.64,4.58,0.60,-0.60,-0.60,-0.85,4.01,3.97,3.98
25.65,4.64,0.67,4.61,0.64,-0.64,-0.61,-0.87,4.00,3.97,3.98
25.91,4.66,0.70,4.65,0.68,-0.68,-0.63,-0.89,3.98,3.97,3.97
26.16,4.69,0.73,4.69,0.72,-0.72,-0.64,-0.91,3.97,3.97,3.97
26.43,4.71,0.75,4.74,0.77,-0.77,-0.65,-0.93,3.95,3.97,3.96
26.69,4.73,0.77,4.78,0.81,-0.81,-0.67,-0.95,3.92,3.97,3.96
26.96,4.76,0.79,4.82,0.85,-0.85,-0.68,-0.97,3.91,3.96,3.97
27.23,4.81,0.84,4.85,0.89,-0.89,-0.69,-0.99,3.92,3.96,3.97
27.50,4.86,0.90,4.89,0.93,-0.93,-0.71,-1.01,3.94,3.96,3.97
27.77,4.93,0.97,4.92,0.96,-0.96,-0.72,-1.03,3.96,3.96,3.96
28.05,4.97,1.02,4.96,1.00,-1.00,-0.74,-1.05,3.97,3.96,3.96
28.33,5.02,1.08,5.00,1.05,-1.05,-0.75,-1.07,3.98,3.95,3.94
28.62,5.08,1.14,5.04,1.09,-1.09,-0.77,-1.09,3.99,3.95,3.94
28.90,5.13,1.18,5.08,1.13,-1.13,-0.78,-1.11,4.00,3.95,3.95
29.19,5.15,1.22,5.12,1.17,-1.17,-0.80,-1.13,3.98,3.95,3.94
29.48,5.15,1.20,5.15,1.21,-1.21,-0.82,-1.15,3.95,3.95,3.96
29.78,5.15,1.21,5.19,1.24,-1.24,-0.83,-1.17,3.91,3.94,3.95
30.08,5.16,1.21,5.22,1.28,-1.28,-0.85,-1.18,3.88,3.94,3.95
30.38,5.22,1.28,5.26,1.31,-1.31,-0.87,-1.20,3.91,3.94,3.94
30.68,5.28,1.35,5.28,1.35,-1.35,-0.88,-1.22,3.94,3.94,3.94
30.99,5.34,1.41,5.31,1.37,-1.37,-0.90,-1.23,3.97,3.94,3.94
31.30,5.35,1.42,5.33,1.40,-1.40,-0.92,-1.25,3.95,3.93,3.93
31.61,5.36,1.43,5.36,1.43,-1.43,-0.94,-1.26,3.94,3.93,3.93
31.93,5.37,1.45,5.39,1.46,-1.46,-0.96,-1.28,3.91,3.93,3.93
32.24,5.42,1.50,5.42,1.50,-1.50,-0.98,-1.29,3.91,3.92,3.92
32.57,5.46,1.54,5.46,1.54,-1.54,-1.00,-1.31,3.92,3.92,3.92
32.89,5.51,1.59,5.49,1.58,-1.58,-1.02,-1.32,3.93,3.91,3.92
33.22,5.53,1.63,5.53,1.62,-1.62,-1.04,-1.34,3.92,3.91,3.91
33.55,5.53,1.63,5.56,1.65,-1.65,-1.06,-1.35,3.88,3.90,3.90
33.89,5.53,1.64,5.58,1.68,-1.68,-1.08,-1.36,3.85,3.90,3.89
34.23,5.58,1.69,5.60,1.71,-1.71,-1.10,-1.38,3.87,3.89,3.90
34.57,5.64,1.76,5.63,1.74,-1.74,-1.13,-1.39,3.90,3.89,3.88
34.92,5.71,1.83,5.66,1.78,-1.78,-1.15,-1.40,3.93,3.88,3.88
35.27,5.73,1.86,5.69,1.82,-1.82,-1.17,-1.42,3.92,3.88,3.88
35.62,5.73,1.86,5.72,1.85,-1.85,-1.19,-1.43,3.89,3.88,3.87
35.97,5.73,1.87,5.75,1.88,-1.88,-1.22,-1.45,3.86,3.87,3.87
36.33,5.74,1.87,5.77,1.91,-1.91,-1.24,-1.46,3.84,3.87,3.87
36.70,5.76,1.90,5.80,1.93,-1.93,-1.27,-1.48,3.84,3.87,3.86
37.06,5.79,1.93,5.82,1.95,-1.95,-1.29,-1.50,3.83,3.87,3.86
37.43,5.85,1.97,5.84,1.98,-1.98,-1.32,-1.52,3.87,3.87,3.87
37.81,5.89,2.03,5.86,2.00,-2.00,-1.35,-1.53,3.90,3.87,3.87
38.19,5.92,2.06,5.88,2.02,-2.02,-1.37,-1.55,3.91,3.86,3.86
38.57,5.92,2.06,5.90,2.03,-2.03,-1.40,-1.57,3.89,3.86,3.87
38.95,5.92,2.05,5.92,2.05,-2.05,-1.43,-1.59,3.87,3.86,3.87
39.34,5.92,2.06,5.93,2.07,-2.07,-1.46,-1.62,3.85,3.86,3.86
39.74,5.92,2.07,5.95,2.09,-2.09,-1.49,-1.64,3.83,3.86,3.86
40.14,5.93,2.07,5.97,2.11,-2.11,-1.52,-1.66,3.83,3.86,3.86
40.54,5.96,2.11,5.98,2.12,-2.12,-1.55,-1.69,3.84,3.86,3.86
40.94,6.00,2.16,5.99,2.14,-2.14,-1.58,-1.72,3.87,3.85,3.85
41.35,6.01,2.17,6.00,2.15,-2.15,-1.61,-1.75,3.86,3.84,3.84
41.76,6.02,2.19,6.00,2.17,-2.17,-1.64,-1.78,3.86,3.84,3.83
42.18,6.02,2.19,6.01,2.19,-2.19,-1.68,-1.81,3.84,3.83,3.84
42.60,6.02,2.21,6.02,2.21,-2.21,-1.71,-1.84,3.81,3.81,3.82
43.03,6.02,2.21,6.04,2.24,-2.24,-1.74,-1.87,3.79,3.80,3.81
43.46,6.02,2.22,6.05,2.26,-2.26,-1.78,-1.91,3.76,3.79,3.80
43.90,6.02,2.25,6.06,2.29,-2.29,-1.81,-1.95,3.74,3.77,3.77
44.33,6.05,2.30,6.07,2.31,-2.31,-1.85,-1.98,3.74,3.76,3.75
44.78,6.08,2.35,6.08,2.33,-2.33,-1.89,-2.02,3.75,3.75,3.74
45.23,6.10,2.38,6.09,2.35,-2.35,-1.92,-2.07,3.75,3.73,3.73
45.68,6.11,2.41,6.09,2.38,-2.38,-1.96,-2.11,3.74,3.71,3.71
46.13,6.11,2.43,6.10,2.40,-2.40,-2.00,-2.15,3.71,3.70,3.69
46.60,6.11,2.43,6.11,2.43,-2.43,-2.04,-2.20,3.69,3.68,3.68
47.06,6.11,2.45,6.12,2.45,-2.45,-2.08,-2.25,3.66,3.66,3.66
47.53,6.11,2.46,6.12,2.47,-2.47,-2.12,-2.29,3.64,3.65,3.65
48.01,6.11,2.47,6.12,2.49,-2.49,-2.16,-2.34,3.62,3.63,3.65
48.49,6.11,2.49,6.12,2.51,-2.51,-2.20,-2.39,3.61,3.62,3.63
48.97,6.11,2.51,6.12,2.52,-2.52,-2.24,-2.45,3.60,3.60,3.60
49.46,6.11,2.53,6.11,2.53,-2.53,-2.29,-2.50,3.59,3.58,3.58
49.96,6.11,2.56,6.10,2.53,-2.53,-2.33,-2.55,3.58,3.57,3.56
50.46,6.11,2.56,6.09,2.54,-2.54,-2.38,-2.61,3.58,3.55,3.55
50.96,6.11,2.58,6.08,2.55,-2.55,-2.42,-2.67,3.57,3.54,3.54
51.47,6.08,2.57,6.07,2.55,-2.55,-2.47,-2.72,3.53,3.52,3.51
51.99,6.05,2.56,6.07,2.56,-2.56,-2.51,-2.78,3.50,3.51,3.50
52.51,6.03,2.55,6.06,2.57,-2.57,-2.56,-2.84,3.47,3.49,3.49
53.03,6.02,2.54,6.05,2.57,-2.57,-2.61,-2.89,3.45,3.47,3.48
53.56,6.02,2.56,6.04,2.58,-2.58,-2.66,-2.95,3.44,3.46,3.46
54.10,6.02,2.58,6.03,2.59,-2.59,-2.71,-3.01,3.44,3.45,3.45
54.64,6.02,2.60,6.03,2.60,-2.60,-2.76,-3.06,3.43,3.43,3.43
55.18,6.02,2.61,6.02,2.60,-2.60,-2.81,-3.12,3.42,3.42,3.42
55.74,6.02,2.63,6.02,2.62,-2.62,-2.86,-3.17,3.41,3.40,3.40
56.29,6.02,2.64,6.02,2.63,-2.63,-2.91,-3.23,3.39,3.39,3.39
56.86,6.02,2.66,6.02,2.65,-2.65,-2.96,-3.28,3.37,3.37,3.37
57.42,6.02,2.69,6.02,2.67,-2.67,-3.02,-3.33,3.35,3.35,3.33
58.00,6.02,2.70,6.02,2.70,-2.70,-3.07,-3.38,3.33,3.32,3.32
58.58,6.02,2.72,6.02,2.72,-2.72,-3.13,-3.43,3.30,3.30,3.31
59.16,6.02,2.74,6.02,2.75,-2.75,-3.18,-3.47,3.28,3.27,3.28
59.76,6.02,2.77,6.01,2.78,-2.78,-3.24,-3.51,3.25,3.24,3.26
60.35,6.02,2.81,6.01,2.81,-2.81,-3.29,-3.55,3.21,3.20,3.21
60.96,6.02,2.85,6.02,2.85,-2.85,-3.35,-3.59,3.17,3.16,3.17
61.57,6.02,2.90,6.02,2.90,-2.90,-3.41,-3.62,3.12,3.12,3.13
62.18,6.02,2.95,6.03,2.95,-2.95,-3.46,-3.65,3.07,3.08,3.08
62.80,6.02,3.00,6.05,3.01,-3.01,-3.52,-3.68,3.01,3.03,3.03
63.43,6.02,3.05,6.06,3.07,-3.07,-3.58,-3.71,2.95,2.99,2.98
64.07,6.02,3.10,6.07,3.13,-3.13,-3.64,-3.73,2.89,2.94,2.93
64.71,6.06,3.19,6.08,3.20,-3.20,-3.69,-3.75,2.87,2.89,2.88
65.35,6.10,3.27,6.10,3.27,-3.27,-3.75,-3.77,2.84,2.83,2.83
66.01,6.16,3.38,6.13,3.35,-3.35,-3.81,-3.78,2.82,2.78,2.78
66.67,6.19,3.47,6.15,3.43,-3.43,-3.87,-3.80,2.77,2.73,2.73
67.33,6.21,3.54,6.18,3.51,-3.51,-3.93,-3.81,2.71,2.67,2.67
68.01,6.21,3.59,6.21,3.59,-3.59,-3.99,-3.82,2.62,2.62,2.62
68.69,6.21,3.65,6.24,3.68,-3.68,-4.05,-3.83,2.54,2.56,2.57
69.37,6.23,3.73,6.27,3.76,-3.76,-4.10,-3.83,2.47,2.51,2.51
70.07,6.25,3.81,6.30,3.85,-3.85,-4.16,-3.84,2.41,2.45,2.45
70.77,6.30,3.91,6.32,3.93,-3.93,-4.22,-3.84,2.37,2.39,2.40
71.48,6.36,4.03,6.34,4.02,-4.02,-4.28,-3.85,2.35,2.33,2.34
72.19,6.40,4.14,6.36,4.09,-4.09,-4.33,-3.86,2.31,2.26,2.27
72.91,6.40,4.20,6.37,4.17,-4.17,-4.39,-3.86,2.23,2.20,2.20
73.64,6.40,4.27,6.38,4.24,-4.24,-4.45,-3.87,2.16,2.14,2.14
74.38,6.40,4.33,6.39,4.32,-4.32,-4.50,-3.87,2.09,2.07,2.07
75.12,6.40,4.40,6.40,4.39,-4.39,-4.56,-3.88,2.01,2.01,2.01
75.87,6.40,4.47,6.42,4.47,-4.47,-4.61,-3.89,1.94,1.95,1.94
76.63,6.40,4.52,6.42,4.54,-4.54,-4.66,-3.90,1.87,1.89,1.88
77.40,6.40,4.58,6.43,4.60,-4.60,-4.72,-3.92,1.80,1.83,1.82
78.17,6.40,4.65,6.43,4.66,-4.66,-4.77,-3.93,1.74,1.77,1.75
78.95,6.40,4.69,6.42,4.71,-4.71,-4.82,-3.95,1.69,1.71,1.71
79.74,6.40,4.76,6.41,4.76,-4.76,-4.86,-3.97,1.64,1.65,1.65
80.54,6.40,4.81,6.40,4.80,-4.80,-4.91,-3.99,1.60,1.59,1.60
81.35,6.40,4.87,6.38,4.85,-4.85,-4.96,-4.02,1.56,1.54,1.53
82.16,6.40,4.93,6.37,4.89,-4.89,-5.00,-4.04,1.52,1.48,1.48
82.98,6.40,4.97,6.35,4.93,-4.93,-5.04,-4.07,1.48,1.42,1.43
83.81,6.39,5.03,6.34,4.97,-4.97,-5.08,-4.11,1.43,1.37,1.37
84.65,6.33,5.03,6.32,5.01,-5.01,-5.12,-4.14,1.32,1.31,1.31
85.50,6.27,5.01,6.31,5.05,-5.05,-5.16,-4.18,1.22,1.25,1.26
86.35,6.22,5.02,6.29,5.09,-5.09,-5.19,-4.23,1.13,1.20,1.20
87.22,6.21,5.07,6.27,5.14,-5.14,-5.23,-4.27,1.08,1.14,1.14
88.09,6.21,5.13,6.26,5.18,-5.18,-5.26,-4.32,1.03,1.08,1.08
88.97,6.21,5.19,6.24,5.22,-5.22,-5.29,-4.37,0.99,1.02,1.02
89.86,6.21,5.26,6.23,5.27,-5.27,-5.32,-4.43,0.95,0.96,0.96
90.76,6.21,5.32,6.21,5.31,-5.31,-5.34,-4.49,0.90,0.90,0.90
91.66,6.22,5.38,6.19,5.36,-5.36,-5.37,-4.55,0.87,0.84,0.84
92.58,6.22,5.46,6.18,5.40,-5.40,-5.39,-4.62,0.83,0.78,0.77
93.51,6.20,5.49,6.16,5.44,-5.44,-5.41,-4.69,0.76,0.72,0.71
94.44,6.15,5.49,6.15,5.49,-5.49,-5.42,-4.76,0.67,0.66,0.66
95.39,6.12,5.52,6.13,5.53,-5.53,-5.44,-4.83,0.59,0.60,0.60
96.34,6.12,5.59,6.11,5.57,-5.57,-5.45,-4.91,0.56,0.54,0.54
97.30,6.08,5.60,6.08,5.60,-5.60,-5.47,-4.99,0.49,0.49,0.48
98.28,6.00,5.58,6.05,5.62,-5.62,-5.48,-5.08,0.39,0.43,0.43
99.26,5.99,5.62,6.01,5.64,-5.64,-5.49,-5.16,0.36,0.37,0.37
100.25,5.97,5.66,5.96,5.65,-5.65,-5.49,-5.25,0.32,0.31,0.31
101.25,5.93,5.68,5.92,5.66,-5.66,-5.50,-5.34,0.27,0.25,0.26
102.27,5.85,5.66,5.87,5.68,-5.68,-5.50,-5.43,0.18,0.20,0.20
103.29,5.83,5.70,5.82,5.69,-5.69,-5.50,-5.52,0.15,0.14,0.13
104.32,5.81,5.73,5.77,5.70,-5.70,-5.51,-5.61,0.12,0.08,0.08
105.37,5.75,5.73,5.72,5.71,-5.71,-5.51,-5.71,0.05,0.02,0.02
106.42,5.66,5.70,5.67,5.72,-5.72,-5.50,-5.80,-0.05,-0.04,-0.03
107.48,5.58,5.69,5.62,5.73,-5.73,-5.50,-5.89,-0.14,-0.11,-0.10
108.56,5.52,5.69,5.57,5.74,-5.74,-5.50,-5.98,-0.21,-0.17,-0.17
109.64,5.50,5.73,5.52,5.75,-5.75,-5.50,-6.07,-0.24,-0.23,-0.23
110.74,5.48,5.78,5.46,5.76,-5.76,-5.49,-6.15,-0.27,-0.29,-0.29
111.85,5.43,5.78,5.41,5.76,-5.76,-5.49,-6.24,-0.33,-0.35,-0.34
112.97,5.36,5.78,5.36,5.77,-5.77,-5.49,-6.31,-0.41,-0.41,-0.42
114.10,5.26,5.74,5.31,5.78,-5.78,-5.48,-6.39,-0.52,-0.47,-0.47
115.24,5.25,5.79,5.26,5.79,-5.79,-5.48,-6.45,-0.53,-0.53,-0.53
116.39,5.23,5.83,5.21,5.79,-5.79,-5.47,-6.52,-0.56,-0.58,-0.60
117.55,5.18,5.83,5.17,5.80,-5.80,-5.47,-6.57,-0.62,-0.63,-0.64
118.73,5.09,5.79,5.12,5.81,-5.81,-5.47,-6.62,-0.72,-0.68,-0.70
119.92,5.08,5.82,5.08,5.81,-5.81,-5.47,-6.66,-0.73,-0.73,-0.73
121.12,5.02,5.81,5.03,5.81,-5.81,-5.46,-6.69,-0.78,-0.78,-0.79
122.33,4.97,5.80,4.98,5.80,-5.80,-5.46,-6.71,-0.83,-0.82,-0.83
123.55,4.92,5.79,4.93,5.80,-5.80,-5.46,-6.73,-0.87,-0.87,-0.86
124.79,4.91,5.82,4.88,5.79,-5.79,-5.47,-6.73,-0.87,-0.91,-0.90
126.03,4.83,5.78,4.83,5.78,-5.78,-5.47,-6.73,-0.95,-0.95,-0.94
127.29,4.80,5.78,4.79,5.77,-5.77,-5.47,-6.71,-0.97,-0.99,-0.98
128.57,4.74,5.77,4.73,5.76,-5.76,-5.48,-6.69,-1.02,-1.03,-1.02
129.85,4.66,5.73,4.68,5.74,-5.74,-5.49,-6.66,-1.08,-1.06,-1.06
131.15,4.62,5.73,4.62,5.73,-5.73,-5.49,-6.62,-1.10,-1.10,-1.10
132.46,4.56,5.70,4.57,5.71,-5.71,-5.50,-6.57,-1.14,-1.14,-1.14
133.79,4.49,5.67,4.52,5.69,-5.69,-5.52,-6.51,-1.20,-1.18,-1.18
135.12,4.47,5.70,4.46,5.67,-5.67,-5.53,-6.45,-1.20,-1.21,-1.22
136.48,4.41,5.66,4.40,5.65,-5.65,-5.54,-6.38,-1.24,-1.25,-1.25
137.84,4.36,5.66,4.35,5.63,-5.63,-5.56,-6.30,-1.27,-1.28,-1.29
139.22,4.32,5.66,4.29,5.61,-5.61,-5.57,-6.22,-1.29,-1.32,-1.33
140.61,4.25,5.63,4.24,5.60,-5.60,-5.59,-6.13,-1.35,-1.36,-1.38
142.02,4.13,5.53,4.20,5.60,-5.60,-5.61,-6.05,-1.46,-1.40,-1.40
143.44,4.11,5.55,4.16,5.61,-5.61,-5.63,-5.95,-1.49,-1.44,-1.44
144.87,4.10,5.59,4.13,5.62,-5.62,-5.64,-5.86,-1.52,-1.49,-1.49
146.32,4.07,5.61,4.10,5.64,-5.64,-5.66,-5.77,-1.57,-1.54,-1.54
147.78,4.02,5.60,4.06,5.66,-5.66,-5.68,-5.67,-1.64,-1.60,-1.57
149.26,3.95,5.58,4.02,5.68,-5.68,-5.70,-5.57,-1.73,-1.66,-1.63
150.75,3.91,5.62,3.97,5.70,-5.70,-5.71,-5.48,-1.78,-1.73,-1.70
152.26,3.91,5.69,3.91,5.71,-5.71,-5.72,-5.38,-1.80,-1.80,-1.78
153.78,3.92,5.78,3.85,5.72,-5.72,-5.73,-5.28,-1.80,-1.87,-1.85
155.32,3.91,5.85,3.77,5.72,-5.72,-5.74,-5.19,-1.81,-1.95,-1.94
156.88,3.84,5.86,3.69,5.72,-5.72,-5.74,-5.10,-1.87,-2.03,-2.02
158.44,3.70,5.81,3.60,5.70,-5.70,-5.74,-5.01,-2.00,-2.10,-2.11
160.03,3.54,5.74,3.49,5.67,-5.67,-5.73,-4.92,-2.13,-2.18,-2.20
161.63,3.36,5.64,3.38,5.63,-5.63,-5.71,-4.83,-2.26,-2.25,-2.28
163.24,3.21,5.56,3.26,5.58,-5.58,-5.70,-4.75,-2.36,-2.32,-2.34
164.88,3.09,5.49,3.14,5.52,-5.52,-5.67,-4.67,-2.43,-2.38,-2.40
166.53,2.96,5.42,3.02,5.45,-5.45,-5.64,-4.59,-2.49,-2.44,-2.46
168.19,2.85,5.35,2.90,5.38,-5.38,-5.60,-4.51,-2.53,-2.48,-2.50
169.87,2.72,5.27,2.79,5.31,-5.31,-5.55,-4.44,-2.58,-2.52,-2.54
171.57,2.62,5.19,2.68,5.24,-5.24,-5.50,-4.37,-2.61,-2.55,-2.57
173.29,2.55,5.14,2.60,5.17,-5.17,-5.44,-4.30,-2.62,-2.58,-2.59
175.02,2.48,5.08,2.52,5.12,-5.12,-5.38,-4.24,-2.63,-2.60,-2.60
176.77,2.43,5.05,2.45,5.07,-5.07,-5.31,-4.18,-2.63,-2.61,-2.62
178.54,2.35,4.98,2.40,5.02,-5.02,-5.23,-4.13,-2.67,-2.63,-2.63
180.32,2.33,4.96,2.35,4.99,-4.99,-5.14,-4.07,-2.65,-2.64,-2.63
182.13,2.33,4.96,2.30,4.95,-4.95,-5.06,-4.02,-2.62,-2.65,-2.63
183.95,2.24,4.89,2.25,4.91,-4.91,-4.96,-3.98,-2.66,-2.66,-2.64
185.79,2.26,4.91,2.19,4.86,-4.86,-4.87,-3.93,-2.60,-2.67,-2.65
187.65,2.19,4.87,2.13,4.82,-4.82,-4.77,-3.89,-2.62,-2.69,-2.67
189.52,2.11,4.80,2.07,4.77,-4.77,-4.67,-3.85,-2.65,-2.70,-2.69
191.42,2.00,4.72,2.00,4.72,-4.72,-4.56,-3.82,-2.71,-2.72,-2.71
193.33,1.91,4.65,1.92,4.66,-4.66,-4.46,-3.78,-2.75,-2.74,-2.74
195.27,1.86,4.62,1.85,4.60,-4.60,-4.35,-3.75,-2.74,-2.76,-2.76
197.22,1.79,4.57,1.76,4.54,-4.54,-4.25,-3.73,-2.74,-2.78,-2.78
199.19,1.67,4.49,1.66,4.47,-4.47,-4.14,-3.70,-2.79,-2.80,-2.81
201.18,1.51,4.35,1.56,4.39,-4.39,-4.03,-3.68,-2.87,-2.83,-2.83
203.19,1.36,4.22,1.45,4.30,-4.30,-3.93,-3.66,-2.94,-2.85,-2.85
205.23,1.29,4.17,1.34,4.21,-4.21,-3.82,-3.64,-2.92,-2.88,-2.88
207.28,1.24,4.13,1.21,4.11,-4.11,-3.72,-3.62,-2.87,-2.90,-2.89
209.35,1.14,4.06,1.09,4.01,-4.01,-3.62,-3.60,-2.87,-2.92,-2.92
211.44,1.03,3.99,0.97,3.91,-3.91,-3.52,-3.59,-2.88,-2.94,-2.95
213.56,0.91,3.87,0.84,3.81,-3.81,-3.42,-3.57,-2.89,-2.96,-2.96
215.69,0.75,3.73,0.72,3.69,-3.69,-3.32,-3.56,-2.94,-2.98,-2.98
217.85,0.58,3.58,0.59,3.58,-3.58,-3.23,-3.54,-3.00,-2.99,-2.99
220.03,0.47,3.48,0.48,3.48,-3.48,-3.13,-3.53,-3.01,-3.01,-3.01
222.23,0.35,3.39,0.38,3.39,-3.39,-3.04,-3.51,-3.04,-3.01,-3.03
224.45,0.22,3.25,0.27,3.29,-3.29,-2.96,-3.49,-3.07,-3.02,-3.03
226.70,0.09,3.12,0.17,3.19,-3.19,-2.87,-3.48,-3.10,-3.02,-3.03
228.96,0.02,3.05,0.09,3.11,-3.11,-2.79,-3.46,-3.08,-3.02,-3.02
231.25,0.03,3.05,0.02,3.04,-3.04,-2.70,-3.44,-3.00,-3.02,-3.01
233.57,-0.03,2.98,-0.02,2.98,-2.98,-2.63,-3.42,-3.01,-3.01,-3.01
235.90,-0.15,2.85,-0.05,2.94,-2.94,-2.55,-3.39,-3.08,-2.99,-3.00
238.26,-0.13,2.86,-0.07,2.91,-2.91,-2.47,-3.37,-3.03,-2.98,-2.99
240.64,-0.08,2.90,-0.07,2.89,-2.89,-2.40,-3.34,-2.96,-2.96,-2.97
243.05,-0.06,2.89,-0.07,2.87,-2.87,-2.33,-3.31,-2.93,-2.94,-2.94
245.48,-0.13,2.80,-0.07,2.85,-2.85,-2.26,-3.27,-2.98,-2.92,-2.92
247.93,-0.20,2.70,-0.07,2.84,-2.84,-2.19,-3.23,-3.03,-2.90,-2.89
250.41,0.03,2.92,-0.06,2.82,-2.82,-2.13,-3.19,-2.78,-2.88,-2.88
252.92,0.10,2.95,-0.06,2.80,-2.80,-2.07,-3.15,-2.69,-2.86,-2.85
255.45,0.03,2.86,-0.07,2.77,-2.77,-2.00,-3.10,-2.74,-2.84,-2.83
258.00,0.00,2.81,-0.07,2.74,-2.74,-1.94,-3.05,-2.74,-2.81,-2.81
260.58,-0.06,2.74,-0.08,2.71,-2.71,-1.89,-3.00,-2.77,-2.79,-2.80
263.19,-0.11,2.66,-0.09,2.67,-2.67,-1.83,-2.94,-2.78,-2.77,-2.76
265.82,-0.16,2.60,-0.12,2.62,-2.62,-1.77,-2.88,-2.78,-2.74,-2.75
268.48,-0.22,2.51,-0.15,2.57,-2.57,-1.72,-2.82,-2.78,-2.72,-2.73
271.16,-0.26,2.44,-0.19,2.51,-2.51,-1.67,-2.75,-2.76,-2.70,-2.70
273.87,-0.27,2.42,-0.23,2.44,-2.44,-1.62,-2.69,-2.71,-2.67,-2.68
276.61,-0.30,2.35,-0.28,2.37,-2.37,-1.57,-2.61,-2.67,-2.65,-2.65
279.38,-0.28,2.35,-0.34,2.29,-2.29,-1.52,-2.54,-2.56,-2.62,-2.62
282.17,-0.37,2.24,-0.38,2.22,-2.22,-1.47,-2.47,-2.58,-2.60,-2.60
284.99,-0.39,2.18,-0.42,2.15,-2.15,-1.42,-2.39,-2.54,-2.57,-2.57
287.84,-0.46,2.10,-0.46,2.08,-2.08,-1.38,-2.31,-2.54,-2.54,-2.55
290.72,-0.53,1.99,-0.51,2.01,-2.01,-1.33,-2.24,-2.53,-2.52,-2.52
293.63,-0.60,1.90,-0.56,1.93,-1.93,-1.29,-2.16,-2.53,-2.49,-2.49
296.57,-0.64,1.82,-0.61,1.85,-1.85,-1.24,-2.08,-2.49,-2.46,-2.46
299.53,-0.68,1.76,-0.67,1.77,-1.77,-1.20,-1.99,-2.44,-2.43,-2.43
302.53,-0.72,1.70,-0.73,1.68,-1.68,-1.16,-1.91,-2.40,-2.41,-2.42
305.55,-0.75,1.63,-0.79,1.59,-1.59,-1.12,-1.83,-2.34,-2.38,-2.37
308.61,-0.80,1.56,-0.86,1.50,-1.50,-1.08,-1.75,-2.30,-2.36,-2.36
311.69,-0.92,1.41,-0.93,1.41,-1.41,-1.04,-1.66,-2.33,-2.34,-2.33
314.81,-1.01,1.30,-0.99,1.32,-1.32,-1.00,-1.58,-2.33,-2.32,-2.30
317.96,-1.09,1.20,-1.07,1.23,-1.23,-0.96,-1.50,-2.31,-2.30,-2.29
321.14,-1.18,1.11,-1.13,1.14,-1.14,-0.92,-1.41,-2.32,-2.28,-2.28
324.35,-1.21,1.06,-1.21,1.05,-1.05,-0.88,-1.33,-2.26,-2.26,-2.27
327.59,-1.31,0.94,-1.29,0.96,-0.96,-0.84,-1.25,-2.26,-2.25,-2.25
330.87,-1.36,0.89,-1.38,0.86,-0.86,-0.80,-1.17,-2.21,-2.24,-2.24
334.18,-1.41,0.82,-1.46,0.76,-0.76,-0.77,-1.08,-2.17,-2.22,-2.23
337.52,-1.55,0.67,-1.55,0.67,-0.67,-0.73,-1.00,-2.21,-2.21,-2.22
340.90,-1.65,0.56,-1.63,0.58,-0.58,-0.69,-0.92,-2.23,-2.21,-2.20
344.30,-1.69,0.51,-1.70,0.50,-0.50,-0.65,-0.84,-2.19,-2.20,-2.19
347.75,-1.75,0.45,-1.77,0.43,-0.43,-0.62,-0.76,-2.17,-2.20,-2.20
351.23,-1.83,0.36,-1.83,0.36,-0.36,-0.58,-0.68,-2.19,-2.19,-2.19
354.74,-1.90,0.30,-1.89,0.30,-0.30,-0.54,-0.60,-2.20,-2.19,-2.19
358.28,-2.06,0.13,-1.94,0.24,-0.24,-0.50,-0.52,-2.30,-2.19,-2.18
361.87,-2.09,0.10,-2.00,0.19,-0.19,-0.46,-0.44,-2.27,-2.18,-2.19
365.49,-2.05,0.13,-2.05,0.13,-0.13,-0.42,-0.36,-2.18,-2.18,-2.18
369.14,-2.10,0.10,-2.10,0.09,-0.09,-0.38,-0.28,-2.18,-2.19,-2.19
372.83,-2.15,0.05,-2.14,0.05,-0.05,-0.34,-0.20,-2.19,-2.19,-2.19
376.56,-2.15,0.05,-2.18,0.01,-0.01,-0.30,-0.13,-2.16,-2.19,-2.20
380.33,-2.18,0.01,-2.22,-0.02,0.02,-0.26,-0.05,-2.15,-2.19,-2.19
384.13,-2.23,-0.04,-2.27,-0.07,0.07,-0.22,0.03,-2.16,-2.20,-2.19
387.97,-2.25,-0.05,-2.31,-0.11,0.11,-0.18,0.10,-2.14,-2.20,-2.20
391.85,-2.35,-0.13,-2.36,-0.15,0.15,-0.13,0.18,-2.20,-2.21,-2.21
395.77,-2.41,-0.20,-2.40,-0.19,0.19,-0.09,0.26,-2.22,-2.21,-2.20
399.73,-2.48,-0.26,-2.45,-0.23,0.23,-0.05,0.33,-2.25,-2.22,-2.22
403.72,-2.51,-0.29,-2.51,-0.28,0.28,0.00,0.40,-2.22,-2.23,-2.22
407.76,-2.50,-0.27,-2.57,-0.34,0.34,0.05,0.47,-2.16,-2.23,-2.23
411.84,-2.64,-0.41,-2.62,-0.39,0.39,0.10,0.55,-2.25,-2.23,-2.23
415.96,-2.71,-0.47,-2.67,-0.44,0.44,0.15,0.61,-2.27,-2.23,-2.23
420.12,-2.74,-0.50,-2.72,-0.49,0.49,0.20,0.68,-2.25,-2.23,-2.23
424.32,-2.80,-0.56,-2.76,-0.53,0.53,0.25,0.75,-2.26,-2.23,-2.23
428.56,-2.80,-0.57,-2.79,-0.57,0.57,0.30,0.81,-2.22,-2.22,-2.22
432.85,-2.79,-0.57,-2.81,-0.61,0.61,0.35,0.88,-2.18,-2.20,-2.22
437.18,-2.87,-0.66,-2.82,-0.64,0.64,0.41,0.94,-2.23,-2.18,-2.21
441.55,-2.90,-0.73,-2.82,-0.67,0.67,0.46,1.00,-2.23,-2.16,-2.17
445.96,-2.87,-0.73,-2.82,-0.70,0.70,0.52,1.05,-2.17,-2.13,-2.14
450.42,-2.82,-0.71,-2.82,-0.73,0.73,0.58,1.10,-2.08,-2.09,-2.11
454.93,-2.84,-0.77,-2.82,-0.77,0.77,0.64,1.15,-2.07,-2.05,-2.06
459.48,-2.80,-0.78,-2.81,-0.80,0.80,0.69,1.20,-2.00,-2.01,-2.01
464.07,-2.77,-0.80,-2.80,-0.84,0.84,0.75,1.24,-1.93,-1.96,-1.96
468.71,-2.76,-0.85,-2.79,-0.88,0.88,0.81,1.28,-1.88,-1.91,-1.90
473.40,-2.71,-0.84,-2.77,-0.91,0.91,0.87,1.31,-1.79,-1.86,-1.86
478.13,-2.68,-0.87,-2.77,-0.95,0.95,0.92,1.34,-1.72,-1.81,-1.81
482.91,-2.74,-0.97,-2.75,-0.98,0.98,0.97,1.36,-1.75,-1.77,-1.77
487.74,-2.77,-1.04,-2.74,-1.01,1.01,1.02,1.38,-1.75,-1.73,-1.73
492.62,-2.81,-1.13,-2.73,-1.04,1.04,1.07,1.40,-1.77,-1.69,-1.68
