frequency,raw,error,smoothed,error_smoothed,equalization,parametric_eq,fixed_band_eq,equalized_raw,equalized_smoothed,target
20.00,3.28,0.77,3.28,0.76,-0.79,-1.15,-0.89,2.49,2.49,2.52
20.20,3.35,0.79,3.35,0.78,-0.79,-1.17,-0.92,2.56,2.56,2.57
20.40,3.42,0.80,3.42,0.81,-0.80,-1.19,-0.94,2.62,2.62,2.62
20.61,3.48,0.83,3.49,0.83,-0.81,-1.21,-0.97,2.67,2.68,2.65
20.81,3.56,0.86,3.55,0.85,-0.83,-1.23,-1.00,2.73,2.72,2.70
21.02,3.61,0.88,3.61,0.88,-0.85,-1.25,-1.03,2.76,2.76,2.74
21.23,3.65,0.90,3.66,0.90,-0.88,-1.27,-1.06,2.77,2.78,2.76
21.44,3.70,0.93,3.70,0.92,-0.92,-1.29,-1.09,2.79,2.79,2.78
21.66,3.74,0.94,3.74,0.94,-0.95,-1.31,-1.12,2.79,2.79,2.80
21.87,3.79,0.98,3.79,0.97,-1.00,-1.34,-1.15,2.79,2.79,2.81
22.09,3.84,1.01,3.85,1.02,-1.05,-1.36,-1.19,2.78,2.79,2.83
22.31,3.93,1.09,3.92,1.08,-1.11,-1.38,-1.22,2.82,2.81,2.84
22.54,4.00,1.16,4.01,1.17,-1.17,-1.40,-1.26,2.84,2.84,2.84
22.76,4.09,1.25,4.09,1.25,-1.22,-1.42,-1.29,2.86,2.87,2.84
22.99,4.17,1.34,4.15,1.32,-1.28,-1.45,-1.33,2.90,2.87,2.83
23.22,4.19,1.36,4.20,1.37,-1.33,-1.47,-1.37,2.86,2.87,2.83
23.45,4.22,1.40,4.23,1.40,-1.38,-1.49,-1.41,2.84,2.84,2.83
23.69,4.25,1.41,4.25,1.41,-1.44,-1.52,-1.45,2.82,2.81,2.84
23.92,4.28,1.44,4.29,1.45,-1.48,-1.54,-1.49,2.79,2.80,2.84
24.16,4.34,1.50,4.34,1.49,-1.53,-1.57,-1.53,2.81,2.81,2.84
24.40,4.41,1.56,4.40,1.56,-1.57,-1.59,-1.57,2.83,2.83,2.85
24.65,4.47,1.63,4.48,1.63,-1.62,-1.62,-1.62,2.85,2.85,2.84
24.89,4.55,1.71,4.54,1.70,-1.67,-1.64,-1.66,2.87,2.87,2.84
25.14,4.58,1.75,4.58,1.74,-1.72,-1.67,-1.70,2.87,2.87,2.84
25.39,4.62,1.77,4.62,1.77,-1.76,-1.69,-1.75,2.85,2.86,2.85
25.65,4.64,1.79,4.64,1.80,-1.80,-1.72,-1.79,2.85,2.85,2.85
25.91,4.66,1.82,4.67,1.82,-1.82,-1.74,-1.84,2.84,2.84,2.84
26.16,4.69,1.86,4.69,1.85,-1.85,-1.77,-1.88,2.84,2.84,2.84
26.43,4.71,1.87,4.71,1.87,-1.88,-1.80,-1.93,2.84,2.84,2.84
26.69,4.73,1.90,4.74,1.90,-1.91,-1.82,-1.97,2.83,2.83,2.84
26.96,4.76,1.92,4.77,1.93,-1.95,-1.85,-2.02,2.82,2.82,2.84
27.23,4.81,1.97,4.81,1.97,-1.99,-1.88,-2.06,2.82,2.82,2.84
27.50,4.86,2.02,4.87,2.03,-2.04,-1.91,-2.11,2.82,2.82,2.84
27.77,4.93,2.10,4.92,2.09,-2.09,-1.94,-2.15,2.83,2.83,2.83
28.05,4.97,2.15,4.97,2.15,-2.15,-1.96,-2.19,2.83,2.83,2.83
28.33,5.02,2.21,5.03,2.21,-2.19,-1.99,-2.23,2.83,2.84,2.82
28.62,5.08,2.26,5.08,2.26,-2.24,-2.02,-2.27,2.85,2.85,2.82
28.90,5.13,2.31,5.13,2.30,-2.27,-2.05,-2.31,2.86,2.85,2.83
29.19,5.15,2.34,5.15,2.33,-2.30,-2.08,-2.35,2.85,2.85,2.82
29.48,5.15,2.33,5.15,2.33,-2.34,-2.11,-2.38,2.82,2.82,2.83
29.78,5.15,2.33,5.16,2.33,-2.37,-2.14,-2.41,2.79,2.79,2.82
30.08,5.16,2.34,5.18,2.35,-2.39,-2.17,-2.45,2.77,2.78,2.83
30.38,5.22,2.40,5.23,2.40,-2.42,-2.20,-2.47,2.80,2.81,2.82
30.68,5.28,2.46,5.28,2.46,-2.45,-2.23,-2.50,2.84,2.83,2.82
30.99,5.34,2.52,5.33,2.51,-2.48,-2.26,-2.53,2.86,2.85,2.82
31.30,5.35,2.54,5.35,2.54,-2.52,-2.29,-2.55,2.83,2.83,2.81
31.61,5.36,2.56,5.37,2.56,-2.56,-2.32,-2.57,2.80,2.81,2.81
31.93,5.37,2.56,5.38,2.58,-2.60,-2.35,-2.59,2.78,2.78,2.81
32.24,5.42,2.62,5.42,2.62,-2.63,-2.38,-2.60,2.79,2.79,2.80
32.57,5.46,2.66,5.46,2.67,-2.66,-2.41,-2.62,2.81,2.81,2.80
32.89,5.51,2.72,5.51,2.71,-2.69,-2.45,-2.63,2.83,2.82,2.80
33.22,5.53,2.75,5.53,2.73,-2.72,-2.48,-2.64,2.81,2.80,2.79
33.55,5.53,2.75,5.54,2.75,-2.76,-2.51,-2.65,2.77,2.77,2.79
33.89,5.53,2.76,5.55,2.77,-2.80,-2.54,-2.66,2.73,2.75,2.78
34.23,5.58,2.80,5.59,2.81,-2.84,-2.57,-2.66,2.74,2.75,2.78
34.57,5.64,2.88,5.65,2.87,-2.87,-2.61,-2.67,2.77,2.77,2.77
34.92,5.71,2.94,5.70,2.93,-2.90,-2.64,-2.67,2.81,2.80,2.77
35.27,5.73,2.97,5.73,2.97,-2.93,-2.67,-2.67,2.81,2.80,2.76
35.62,5.73,2.98,5.74,2.98,-2.96,-2.70,-2.68,2.78,2.78,2.76
35.97,5.73,2.98,5.74,2.98,-2.99,-2.74,-2.68,2.75,2.75,2.76
36.33,5.74,2.99,5.74,2.99,-3.02,-2.77,-2.68,2.73,2.73,2.76
36.70,5.76,3.01,5.76,3.01,-3.04,-2.80,-2.69,2.72,2.72,2.75
37.06,5.79,3.04,5.80,3.04,-3.07,-2.83,-2.69,2.72,2.73,2.75
37.43,5.85,3.09,5.84,3.09,-3.09,-2.87,-2.69,2.76,2.76,2.76
37.81,5.89,3.13,5.89,3.13,-3.11,-2.90,-2.70,2.79,2.78,2.76
38.19,5.92,3.17,5.92,3.16,-3.13,-2.93,-2.70,2.80,2.79,2.75
38.57,5.92,3.17,5.93,3.17,-3.15,-2.97,-2.71,2.78,2.78,2.76
38.95,5.92,3.16,5.93,3.17,-3.16,-3.00,-2.72,2.76,2.76,2.77
39.34,5.92,3.17,5.92,3.16,-3.18,-3.03,-2.73,2.75,2.74,2.76
39.74,5.92,3.17,5.93,3.16,-3.19,-3.07,-2.74,2.73,2.73,2.76
40.14,5.93,3.17,5.94,3.18,-3.20,-3.10,-2.75,2.73,2.74,2.76
40.54,5.96,3.20,5.97,3.21,-3.22,-3.13,-2.77,2.75,2.75,2.76
40.94,6.00,3.26,5.99,3.24,-3.23,-3.16,-2.78,2.77,2.76,2.75
41.35,6.01,3.27,6.02,3.27,-3.25,-3.20,-2.80,2.77,2.77,2.75
41.76,6.02,3.29,6.02,3.28,-3.26,-3.23,-2.82,2.76,2.76,2.74
42.18,6.02,3.29,6.02,3.29,-3.28,-3.26,-2.84,2.74,2.75,2.74
42.60,6.02,3.30,6.03,3.30,-3.30,-3.30,-2.86,2.73,2.73,2.73
43.03,6.02,3.31,6.02,3.30,-3.32,-3.33,-2.89,2.71,2.70,2.72
43.46,6.02,3.32,6.02,3.32,-3.34,-3.36,-2.92,2.68,2.68,2.71
43.90,6.02,3.33,6.03,3.35,-3.36,-3.39,-2.95,2.66,2.67,2.69
44.33,6.05,3.39,6.05,3.38,-3.39,-3.43,-2.98,2.67,2.67,2.67
44.78,6.08,3.43,6.08,3.43,-3.42,-3.46,-3.02,2.67,2.66,2.65
45.23,6.10,3.46,6.10,3.46,-3.44,-3.49,-3.05,2.66,2.66,2.64
45.68,6.11,3.48,6.11,3.49,-3.47,-3.52,-3.09,2.64,2.64,2.63
46.13,6.11,3.51,6.12,3.50,-3.49,-3.55,-3.14,2.62,2.62,2.61
46.60,6.11,3.51,6.12,3.51,-3.51,-3.59,-3.18,2.60,2.60,2.61
47.06,6.11,3.53,6.11,3.52,-3.53,-3.62,-3.22,2.59,2.59,2.59
47.53,6.11,3.54,6.11,3.53,-3.54,-3.65,-3.27,2.58,2.58,2.58
48.01,6.11,3.54,6.11,3.54,-3.55,-3.68,-3.32,2.56,2.56,2.58
48.49,6.11,3.55,6.11,3.56,-3.57,-3.71,-3.37,2.55,2.55,2.56
48.97,6.11,3.58,6.11,3.57,-3.58,-3.74,-3.43,2.53,2.53,2.54
49.46,6.11,3.60,6.11,3.60,-3.59,-3.77,-3.48,2.52,2.52,2.52
49.96,6.11,3.61,6.12,3.61,-3.60,-3.80,-3.54,2.51,2.51,2.50
50.46,6.11,3.62,6.12,3.63,-3.61,-3.83,-3.60,2.50,2.51,2.49
50.96,6.11,3.64,6.10,3.63,-3.61,-3.86,-3.66,2.50,2.49,2.48
51.47,6.08,3.63,6.08,3.62,-3.61,-3.89,-3.72,2.47,2.47,2.46
51.99,6.05,3.61,6.06,3.61,-3.61,-3.92,-3.78,2.44,2.45,2.45
52.51,6.03,3.60,6.04,3.60,-3.61,-3.95,-3.84,2.42,2.43,2.44
53.03,6.02,3.59,6.03,3.59,-3.61,-3.98,-3.90,2.42,2.42,2.44
53.56,6.02,3.61,6.02,3.60,-3.61,-4.01,-3.97,2.41,2.41,2.42
54.10,6.02,3.61,6.02,3.61,-3.61,-4.04,-4.03,2.41,2.41,2.41
54.64,6.02,3.63,6.02,3.63,-3.62,-4.07,-4.09,2.40,2.40,2.39
55.18,6.02,3.64,6.02,3.64,-3.64,-4.10,-4.15,2.39,2.39,2.39
55.74,6.02,3.65,6.02,3.65,-3.65,-4.12,-4.21,2.37,2.37,2.37
56.29,6.02,3.67,6.02,3.66,-3.66,-4.15,-4.27,2.36,2.36,2.36
56.86,6.02,3.67,6.02,3.68,-3.68,-4.18,-4.33,2.35,2.35,2.35
57.42,6.02,3.71,6.02,3.70,-3.69,-4.21,-4.38,2.33,2.33,2.32
58.00,6.02,3.72,6.02,3.71,-3.71,-4.24,-4.43,2.32,2.32,2.31
58.58,6.02,3.73,6.02,3.73,-3.73,-4.26,-4.48,2.30,2.30,2.30
59.16,6.02,3.75,6.02,3.74,-3.75,-4.29,-4.53,2.27,2.27,2.28
59.76,6.02,3.76,6.02,3.77,-3.78,-4.32,-4.57,2.25,2.25,2.26
60.35,6.02,3.81,6.02,3.80,-3.81,-4.34,-4.61,2.22,2.22,2.22
60.96,6.02,3.84,6.02,3.84,-3.84,-4.37,-4.64,2.19,2.19,2.18
61.57,6.02,3.88,6.02,3.89,-3.87,-4.40,-4.67,2.15,2.15,2.14
62.18,6.02,3.93,6.02,3.93,-3.92,-4.42,-4.70,2.11,2.11,2.10
62.80,6.02,3.98,6.02,3.97,-3.97,-4.45,-4.73,2.05,2.05,2.05
63.43,6.02,4.02,6.02,4.02,-4.03,-4.48,-4.75,1.99,1.99,2.01
64.07,6.02,4.06,6.03,4.07,-4.10,-4.50,-4.76,1.93,1.94,1.96
64.71,6.06,4.14,6.06,4.14,-4.17,-4.53,-4.78,1.90,1.90,1.92
65.35,6.10,4.23,6.11,4.23,-4.24,-4.55,-4.78,1.87,1.87,1.88
66.01,6.16,4.33,6.16,4.33,-4.31,-4.58,-4.79,1.86,1.85,1.83
66.67,6.19,4.41,6.19,4.41,-4.38,-4.61,-4.79,1.82,1.82,1.78
67.33,6.21,4.49,6.21,4.48,-4.45,-4.63,-4.79,1.77,1.76,1.73
68.01,6.21,4.52,6.22,4.53,-4.52,-4.66,-4.79,1.69,1.69,1.69
68.69,6.21,4.57,6.22,4.58,-4.60,-4.69,-4.79,1.61,1.62,1.64
69.37,6.23,4.65,6.23,4.64,-4.68,-4.71,-4.78,1.56,1.55,1.59
70.07,6.25,4.71,6.26,4.72,-4.75,-4.74,-4.77,1.50,1.51,1.54
70.77,6.30,4.81,6.31,4.82,-4.83,-4.76,-4.76,1.47,1.48,1.49
71.48,6.36,4.92,6.36,4.92,-4.91,-4.79,-4.75,1.45,1.45,1.44
72.19,6.40,5.04,6.39,5.02,-4.99,-4.82,-4.74,1.41,1.40,1.37
72.91,6.40,5.10,6.41,5.09,-5.07,-4.85,-4.73,1.33,1.34,1.31
73.64,6.40,5.15,6.41,5.15,-5.14,-4.87,-4.72,1.26,1.26,1.26
74.38,6.40,5.20,6.40,5.21,-5.21,-4.90,-4.72,1.19,1.19,1.20
75.12,6.40,5.27,6.40,5.26,-5.27,-4.93,-4.71,1.13,1.13,1.14
75.87,6.40,5.33,6.40,5.32,-5.33,-4.96,-4.70,1.08,1.08,1.08
76.63,6.40,5.38,6.40,5.38,-5.38,-4.99,-4.70,1.03,1.03,1.03
77.40,6.40,5.42,6.40,5.43,-5.43,-5.01,-4.70,0.98,0.98,0.98
78.17,6.40,5.49,6.40,5.48,-5.48,-5.04,-4.70,0.92,0.92,0.92
78.95,6.40,5.53,6.40,5.53,-5.53,-5.07,-4.70,0.87,0.87,0.88
79.74,6.40,5.58,6.40,5.58,-5.59,-5.10,-4.70,0.82,0.82,0.83
80.54,6.40,5.63,6.40,5.63,-5.64,-5.13,-4.71,0.77,0.77,0.78
81.35,6.40,5.67,6.41,5.68,-5.68,-5.16,-4.72,0.73,0.73,0.73
82.16,6.40,5.73,6.41,5.73,-5.71,-5.20,-4.74,0.69,0.70,0.68
82.98,6.40,5.77,6.40,5.77,-5.74,-5.23,-4.76,0.67,0.67,0.64
83.81,6.39,5.81,6.38,5.79,-5.76,-5.26,-4.78,0.64,0.62,0.59
84.65,6.33,5.80,6.33,5.79,-5.78,-5.29,-4.80,0.56,0.56,0.54
85.50,6.27,5.78,6.28,5.78,-5.80,-5.33,-4.83,0.48,0.48,0.50
86.35,6.22,5.78,6.24,5.79,-5.82,-5.36,-4.86,0.40,0.41,0.45
87.22,6.21,5.81,6.21,5.81,-5.85,-5.39,-4.90,0.37,0.37,0.40
88.09,6.21,5.86,6.21,5.86,-5.88,-5.43,-4.93,0.33,0.33,0.35
88.97,6.21,5.92,6.21,5.92,-5.92,-5.46,-4.98,0.29,0.29,0.29
89.86,6.21,5.97,6.21,5.97,-5.97,-5.50,-5.02,0.24,0.24,0.24
90.76,6.21,6.02,6.22,6.03,-6.02,-5.54,-5.07,0.19,0.20,0.19
91.66,6.22,6.09,6.22,6.09,-6.07,-5.57,-5.13,0.15,0.15,0.14
92.58,6.22,6.15,6.22,6.13,-6.12,-5.61,-5.19,0.11,0.10,0.08
93.51,6.20,6.17,6.19,6.16,-6.15,-5.65,-5.25,0.05,0.04,0.03
94.44,6.15,6.17,6.17,6.18,-6.18,-5.69,-5.31,-0.03,-0.01,-0.01
95.39,6.12,6.18,6.14,6.20,-6.20,-5.72,-5.38,-0.08,-0.06,-0.06
96.34,6.12,6.24,6.10,6.22,-6.22,-5.76,-5.45,-0.10,-0.11,-0.11
97.30,6.08,6.24,6.07,6.23,-6.23,-5.80,-5.53,-0.15,-0.16,-0.16
98.28,6.00,6.22,6.03,6.24,-6.24,-5.84,-5.60,-0.24,-0.21,-0.21
99.26,5.99,6.25,6.00,6.25,-6.26,-5.88,-5.68,-0.26,-0.26,-0.25
100.25,5.97,6.28,5.96,6.26,-6.27,-5.92,-5.77,-0.29,-0.31,-0.30
101.25,5.93,6.28,5.92,6.27,-6.27,-5.96,-5.85,-0.34,-0.35,-0.35
102.27,5.85,6.26,5.88,6.28,-6.28,-6.00,-5.94,-0.42,-0.40,-0.40
103.29,5.83,6.29,5.84,6.29,-6.27,-6.04,-6.03,-0.44,-0.43,-0.45
104.32,5.81,6.31,5.80,6.29,-6.27,-6.08,-6.12,-0.46,-0.47,-0.49
105.37,5.75,6.30,5.75,6.29,-6.27,-6.11,-6.20,-0.52,-0.53,-0.54
106.42,5.66,6.26,5.67,6.26,-6.27,-6.15,-6.29,-0.61,-0.60,-0.59
107.48,5.58,6.23,5.59,6.24,-6.27,-6.19,-6.38,-0.68,-0.68,-0.65
108.56,5.52,6.23,5.54,6.24,-6.26,-6.22,-6.47,-0.74,-0.73,-0.70
109.64,5.50,6.26,5.50,6.26,-6.26,-6.26,-6.56,-0.76,-0.76,-0.75
110.74,5.48,6.30,5.48,6.28,-6.26,-6.29,-6.64,-0.78,-0.78,-0.81
111.85,5.43,6.29,5.42,6.28,-6.26,-6.33,-6.72,-0.83,-0.84,-0.85
112.97,5.36,6.28,5.36,6.27,-6.27,-6.36,-6.79,-0.90,-0.91,-0.91
114.10,5.26,6.23,5.30,6.26,-6.27,-6.39,-6.87,-1.01,-0.97,-0.96
115.24,5.25,6.26,5.26,6.27,-6.27,-6.42,-6.93,-1.02,-1.02,-1.01
116.39,5.23,6.30,5.21,6.27,-6.27,-6.44,-6.99,-1.03,-1.06,-1.06
117.55,5.18,6.28,5.18,6.28,-6.26,-6.47,-7.04,-1.08,-1.09,-1.10
118.73,5.09,6.24,5.12,6.26,-6.25,-6.49,-7.09,-1.16,-1.13,-1.14
119.92,5.08,6.25,5.07,6.24,-6.25,-6.51,-7.12,-1.16,-1.18,-1.17
121.12,5.02,6.24,5.02,6.23,-6.24,-6.52,-7.15,-1.21,-1.22,-1.21
122.33,4.97,6.22,4.98,6.22,-6.23,-6.54,-7.17,-1.25,-1.24,-1.24
123.55,4.92,6.20,4.93,6.21,-6.21,-6.55,-7.18,-1.28,-1.28,-1.27
124.79,4.91,6.21,4.89,6.19,-6.19,-6.56,-7.18,-1.28,-1.30,-1.30
126.03,4.83,6.17,4.85,6.18,-6.17,-6.56,-7.17,-1.33,-1.32,-1.33
127.29,4.80,6.15,4.80,6.15,-6.15,-6.56,-7.15,-1.34,-1.35,-1.35
128.57,4.74,6.14,4.74,6.12,-6.12,-6.56,-7.12,-1.38,-1.39,-1.39
129.85,4.66,6.09,4.68,6.10,-6.10,-6.55,-7.08,-1.44,-1.42,-1.42
131.15,4.62,6.08,4.61,6.07,-6.08,-6.54,-7.03,-1.45,-1.46,-1.45
132.46,4.56,6.04,4.56,6.04,-6.05,-6.53,-6.97,-1.49,-1.49,-1.48
133.79,4.49,6.01,4.51,6.02,-6.03,-6.51,-6.91,-1.53,-1.52,-1.51
135.12,4.47,6.01,4.46,6.00,-6.00,-6.49,-6.84,-1.53,-1.54,-1.54
136.48,4.41,5.98,4.42,5.98,-5.97,-6.47,-6.76,-1.56,-1.55,-1.56
137.84,4.36,5.97,4.38,5.98,-5.95,-6.44,-6.67,-1.58,-1.57,-1.60
139.22,4.32,5.96,4.31,5.94,-5.92,-6.40,-6.59,-1.60,-1.61,-1.63
140.61,4.25,5.91,4.24,5.89,-5.90,-6.37,-6.49,-1.64,-1.66,-1.66
142.02,4.13,5.82,4.17,5.85,-5.87,-6.33,-6.39,-1.74,-1.70,-1.68
143.44,4.11,5.83,4.12,5.84,-5.85,-6.28,-6.29,-1.74,-1.73,-1.71
144.87,4.10,5.86,4.09,5.84,-5.84,-6.23,-6.19,-1.73,-1.74,-1.75
146.32,4.07,5.87,4.07,5.85,-5.83,-6.18,-6.09,-1.76,-1.77,-1.79
147.78,4.02,5.84,4.02,5.84,-5.85,-6.13,-5.98,-1.83,-1.83,-1.82
149.26,3.95,5.83,3.96,5.84,-5.88,-6.07,-5.87,-1.93,-1.92,-1.87
150.75,3.91,5.85,3.93,5.86,-5.92,-6.01,-5.77,-2.00,-1.99,-1.93
152.26,3.91,5.92,3.92,5.92,-5.95,-5.95,-5.66,-2.04,-2.03,-2.00
153.78,3.92,6.00,3.92,5.99,-5.97,-5.88,-5.56,-2.05,-2.05,-2.07
155.32,3.91,6.06,3.90,6.05,-5.98,-5.81,-5.46,-2.07,-2.08,-2.14
156.88,3.84,6.07,3.83,6.05,-5.98,-5.74,-5.35,-2.13,-2.14,-2.22
158.44,3.70,6.00,3.71,6.01,-5.95,-5.67,-5.26,-2.25,-2.25,-2.30
160.03,3.54,5.93,3.54,5.92,-5.91,-5.60,-5.16,-2.37,-2.37,-2.38
161.63,3.36,5.82,3.38,5.82,-5.85,-5.52,-5.06,-2.48,-2.47,-2.45
163.24,3.21,5.72,3.22,5.73,-5.77,-5.44,-4.97,-2.55,-2.54,-2.51
164.88,3.09,5.66,3.09,5.65,-5.67,-5.36,-4.88,-2.58,-2.59,-2.56
166.53,2.96,5.58,2.97,5.58,-5.58,-5.28,-4.80,-2.62,-2.61,-2.61
168.19,2.85,5.50,2.84,5.50,-5.49,-5.20,-4.71,-2.64,-2.65,-2.65
169.87,2.72,5.41,2.73,5.42,-5.42,-5.12,-4.63,-2.69,-2.68,-2.69
171.57,2.62,5.33,2.63,5.34,-5.34,-5.04,-4.56,-2.72,-2.71,-2.71
173.29,2.55,5.28,2.55,5.28,-5.28,-4.95,-4.48,-2.73,-2.73,-2.72
175.02,2.48,5.22,2.48,5.22,-5.22,-4.87,-4.41,-2.74,-2.74,-2.73
176.77,2.43,5.17,2.42,5.16,-5.17,-4.79,-4.35,-2.74,-2.75,-2.74
178.54,2.35,5.11,2.38,5.12,-5.13,-4.70,-4.28,-2.77,-2.75,-2.75
180.32,2.33,5.08,2.33,5.08,-5.09,-4.62,-4.22,-2.75,-2.75,-2.74
182.13,2.33,5.07,2.31,5.04,-5.05,-4.53,-4.17,-2.71,-2.74,-2.73
183.95,2.24,4.99,2.28,5.02,-5.01,-4.45,-4.11,-2.76,-2.73,-2.74
185.79,2.26,5.01,2.25,4.99,-4.97,-4.37,-4.06,-2.70,-2.72,-2.74
187.65,2.19,4.96,2.19,4.94,-4.93,-4.28,-4.01,-2.73,-2.74,-2.76
189.52,2.11,4.88,2.11,4.88,-4.88,-4.20,-3.97,-2.77,-2.77,-2.77
191.42,2.00,4.80,2.01,4.80,-4.82,-4.12,-3.93,-2.82,-2.81,-2.79
193.33,1.91,4.73,1.93,4.74,-4.75,-4.04,-3.89,-2.84,-2.82,-2.81
195.27,1.86,4.70,1.86,4.69,-4.67,-3.96,-3.85,-2.81,-2.81,-2.83
197.22,1.79,4.65,1.78,4.63,-4.59,-3.88,-3.82,-2.80,-2.81,-2.85
199.19,1.67,4.55,1.66,4.53,-4.51,-3.80,-3.79,-2.84,-2.85,-2.87
201.18,1.51,4.40,1.52,4.41,-4.43,-3.72,-3.76,-2.92,-2.91,-2.89
203.19,1.36,4.27,1.39,4.30,-4.35,-3.64,-3.73,-2.99,-2.96,-2.91
205.23,1.29,4.23,1.30,4.23,-4.27,-3.57,-3.71,-2.97,-2.97,-2.93
207.28,1.24,4.19,1.22,4.17,-4.17,-3.49,-3.68,-2.93,-2.95,-2.94
209.35,1.14,4.11,1.15,4.11,-4.08,-3.42,-3.66,-2.93,-2.93,-2.96
211.44,1.03,4.02,1.04,4.02,-3.97,-3.34,-3.64,-2.94,-2.93,-2.99
213.56,0.91,3.92,0.90,3.90,-3.87,-3.27,-3.62,-2.95,-2.97,-3.00
215.69,0.75,3.76,0.75,3.76,-3.76,-3.20,-3.60,-3.00,-3.00,-3.01
217.85,0.58,3.60,0.61,3.63,-3.64,-3.13,-3.58,-3.06,-3.03,-3.02
220.03,0.47,3.51,0.47,3.51,-3.52,-3.06,-3.56,-3.04,-3.05,-3.03
222.23,0.35,3.42,0.34,3.39,-3.40,-2.99,-3.54,-3.04,-3.06,-3.06
224.45,0.22,3.27,0.22,3.27,-3.28,-2.93,-3.52,-3.06,-3.07,-3.05
226.70,0.09,3.15,0.12,3.17,-3.18,-2.86,-3.50,-3.09,-3.07,-3.05
228.96,0.02,3.07,0.05,3.09,-3.10,-2.79,-3.47,-3.08,-3.05,-3.04
231.25,0.03,3.06,-0.01,3.03,-3.03,-2.73,-3.45,-2.99,-3.03,-3.03
233.57,-0.03,3.00,-0.06,2.97,-2.97,-2.67,-3.42,-2.99,-3.02,-3.02
235.90,-0.15,2.87,-0.09,2.92,-2.91,-2.60,-3.39,-3.06,-3.01,-3.01
238.26,-0.13,2.88,-0.11,2.89,-2.88,-2.54,-3.37,-3.00,-2.99,-3.00
240.64,-0.08,2.90,-0.09,2.88,-2.86,-2.48,-3.33,-2.94,-2.96,-2.97
243.05,-0.06,2.89,-0.11,2.83,-2.86,-2.42,-3.30,-2.91,-2.97,-2.94
245.48,-0.13,2.80,-0.12,2.80,-2.85,-2.36,-3.26,-2.98,-2.97,-2.92
247.93,-0.20,2.70,-0.08,2.81,-2.85,-2.31,-3.22,-3.05,-2.93,-2.89
250.41,0.03,2.91,-0.02,2.85,-2.85,-2.25,-3.18,-2.81,-2.87,-2.87
252.92,0.10,2.95,0.04,2.89,-2.83,-2.19,-3.13,-2.73,-2.79,-2.84
255.45,0.03,2.86,0.07,2.89,-2.81,-2.14,-3.08,-2.77,-2.74,-2.82
258.00,0.00,2.80,0.01,2.81,-2.77,-2.08,-3.03,-2.76,-2.76,-2.80
260.58,-0.06,2.72,-0.05,2.72,-2.72,-2.03,-2.97,-2.78,-2.78,-2.78
263.19,-0.11,2.65,-0.10,2.65,-2.67,-1.98,-2.91,-2.77,-2.77,-2.75
265.82,-0.16,2.58,-0.16,2.57,-2.60,-1.93,-2.85,-2.76,-2.76,-2.73
268.48,-0.22,2.50,-0.21,2.50,-2.53,-1.87,-2.79,-2.75,-2.74,-2.71
271.16,-0.26,2.43,-0.25,2.43,-2.46,-1.82,-2.72,-2.72,-2.71,-2.68
273.87,-0.27,2.39,-0.27,2.39,-2.40,-1.77,-2.65,-2.66,-2.66,-2.66
276.61,-0.30,2.34,-0.28,2.35,-2.34,-1.72,-2.58,-2.63,-2.62,-2.63
279.38,-0.28,2.33,-0.31,2.30,-2.27,-1.68,-2.51,-2.55,-2.58,-2.60
282.17,-0.37,2.21,-0.34,2.23,-2.20,-1.63,-2.43,-2.57,-2.55,-2.58
284.99,-0.39,2.15,-0.39,2.15,-2.13,-1.58,-2.36,-2.52,-2.52,-2.54
287.84,-0.46,2.06,-0.46,2.06,-2.06,-1.53,-2.28,-2.51,-2.52,-2.52
290.72,-0.53,1.96,-0.52,1.97,-1.98,-1.49,-2.20,-2.51,-2.50,-2.49
293.63,-0.60,1.87,-0.59,1.87,-1.90,-1.44,-2.12,-2.50,-2.49,-2.46
296.57,-0.64,1.80,-0.64,1.79,-1.82,-1.39,-2.04,-2.46,-2.46,-2.43
299.53,-0.68,1.72,-0.68,1.73,-1.74,-1.35,-1.96,-2.41,-2.41,-2.40
302.53,-0.72,1.67,-0.71,1.67,-1.65,-1.30,-1.87,-2.36,-2.35,-2.38
305.55,-0.75,1.59,-0.75,1.59,-1.56,-1.26,-1.79,-2.31,-2.31,-2.34
308.61,-0.80,1.53,-0.82,1.50,-1.47,-1.21,-1.71,-2.27,-2.29,-2.32
311.69,-0.92,1.37,-0.90,1.39,-1.38,-1.17,-1.62,-2.30,-2.28,-2.29
314.81,-1.01,1.26,-1.00,1.27,-1.29,-1.12,-1.54,-2.30,-2.29,-2.27
317.96,-1.09,1.17,-1.09,1.16,-1.20,-1.08,-1.46,-2.28,-2.28,-2.25
321.14,-1.18,1.07,-1.16,1.08,-1.10,-1.04,-1.37,-2.27,-2.26,-2.24
324.35,-1.21,1.02,-1.23,0.99,-1.00,-0.99,-1.29,-2.21,-2.23,-2.22
327.59,-1.31,0.90,-1.29,0.93,-0.91,-0.95,-1.21,-2.21,-2.19,-2.21
330.87,-1.36,0.85,-1.35,0.85,-0.82,-0.90,-1.13,-2.17,-2.17,-2.20
334.18,-1.41,0.78,-1.44,0.74,-0.73,-0.86,-1.04,-2.14,-2.18,-2.18
337.52,-1.55,0.63,-1.53,0.64,-0.65,-0.82,-0.96,-2.19,-2.18,-2.17
340.90,-1.65,0.52,-1.62,0.54,-0.56,-0.77,-0.88,-2.20,-2.17,-2.16
344.30,-1.69,0.46,-1.70,0.45,-0.46,-0.73,-0.80,-2.15,-2.16,-2.15
347.75,-1.75,0.41,-1.75,0.40,-0.37,-0.68,-0.72,-2.12,-2.12,-2.15
351.23,-1.83,0.32,-1.83,0.32,-0.29,-0.64,-0.63,-2.12,-2.12,-2.14
354.74,-1.90,0.26,-1.93,0.21,-0.22,-0.59,-0.55,-2.12,-2.15,-2.15
358.28,-2.06,0.08,-2.01,0.13,-0.16,-0.55,-0.47,-2.22,-2.17,-2.14
361.87,-2.09,0.06,-2.06,0.08,-0.11,-0.50,-0.39,-2.20,-2.17,-2.14
365.49,-2.05,0.09,-2.09,0.04,-0.07,-0.46,-0.31,-2.12,-2.16,-2.13
369.14,-2.10,0.05,-2.10,0.04,-0.04,-0.41,-0.23,-2.13,-2.13,-2.14
372.83,-2.15,-0.00,-2.12,0.02,-0.00,-0.36,-0.16,-2.15,-2.12,-2.14
376.56,-2.15,0.01,-2.16,-0.01,0.03,-0.32,-0.08,-2.12,-2.13,-2.15
380.33,-2.18,-0.03,-2.18,-0.04,0.06,-0.27,0.00,-2.12,-2.12,-2.14
384.13,-2.23,-0.08,-2.21,-0.07,0.09,-0.22,0.08,-2.13,-2.12,-2.14
387.97,-2.25,-0.09,-2.27,-0.12,0.13,-0.17,0.16,-2.12,-2.14,-2.15
391.85,-2.35,-0.18,-2.34,-0.18,0.17,-0.12,0.23,-2.17,-2.16,-2.16
395.77,-2.41,-0.25,-2.41,-0.25,0.23,-0.07,0.31,-2.18,-2.18,-2.15
399.73,-2.48,-0.31,-2.46,-0.30,0.28,-0.02,0.38,-2.19,-2.17,-2.16
403.72,-2.51,-0.34,-2.49,-0.33,0.34,0.04,0.46,-2.17,-2.16,-2.16
407.76,-2.50,-0.32,-2.55,-0.38,0.39,0.09,0.53,-2.10,-2.16,-2.18
411.84,-2.64,-0.45,-2.61,-0.43,0.45,0.14,0.60,-2.19,-2.16,-2.18
415.96,-2.71,-0.52,-2.69,-0.50,0.49,0.20,0.67,-2.21,-2.19,-2.18
420.12,-2.74,-0.55,-2.76,-0.58,0.54,0.25,0.74,-2.19,-2.21,-2.18
424.32,-2.80,-0.61,-2.77,-0.59,0.59,0.31,0.81,-2.21,-2.18,-2.18
428.56,-2.80,-0.62,-2.79,-0.62,0.63,0.36,0.88,-2.16,-2.16,-2.17
432.85,-2.79,-0.62,-2.83,-0.66,0.68,0.42,0.94,-2.11,-2.15,-2.16
437.18,-2.87,-0.71,-2.85,-0.71,0.71,0.48,1.00,-2.15,-2.14,-2.15
441.55,-2.90,-0.78,-2.87,-0.75,0.74,0.54,1.06,-2.15,-2.12,-2.11
445.96,-2.87,-0.78,-2.87,-0.79,0.77,0.59,1.12,-2.10,-2.10,-2.08
450.42,-2.82,-0.77,-2.84,-0.80,0.79,0.65,1.17,-2.03,-2.05,-2.05
454.93,-2.84,-0.83,-2.81,-0.81,0.81,0.71,1.22,-2.02,-2.00,-2.00
459.48,-2.80,-0.83,-2.80,-0.84,0.84,0.76,1.27,-1.96,-1.96,-1.96
464.07,-2.77,-0.85,-2.78,-0.87,0.86,0.82,1.31,-1.90,-1.91,-1.91
468.71,-2.76,-0.90,-2.73,-0.88,0.90,0.87,1.35,-1.86,-1.83,-1.85
473.40,-2.71,-0.89,-2.71,-0.91,0.94,0.93,1.38,-1.77,-1.77,-1.81
478.13,-2.68,-0.93,-2.70,-0.95,0.99,0.98,1.41,-1.69,-1.72,-1.75
482.91,-2.74,-1.03,-2.73,-1.02,1.03,1.03,1.44,-1.70,-1.69,-1.71
487.74,-2.77,-1.10,-2.77,-1.10,1.08,1.08,1.46,-1.68,-1.68,-1.67
492.62,-2.81,-1.18,-2.79,-1.17,1.12,1.12,1.47,-1.68,-1.67,-1.62
