frequency,raw,error,smoothed,error_smoothed,equalization,parametric_eq,fixed_band_eq,equalized_raw,equalized_smoothed,target
20.00,2.60,-4.08,2.59,-4.11,4.11,2.41,-0.10,6.71,6.70,6.68
20.20,2.71,-3.97,2.70,-3.99,3.99,2.55,-0.10,6.70,6.69,6.68
20.40,2.80,-3.88,2.81,-3.88,3.88,2.67,-0.10,6.68,6.69,6.68
20.61,2.91,-3.77,2.92,-3.76,3.76,2.79,-0.10,6.67,6.68,6.68
20.81,3.02,-3.66,3.02,-3.64,3.64,2.90,-0.10,6.66,6.67,6.68
21.02,3.13,-3.55,3.13,-3.52,3.52,2.98,-0.10,6.65,6.65,6.68
21.23,3.24,-3.42,3.24,-3.40,3.40,3.05,-0.10,6.64,6.64,6.66
21.44,3.35,-3.29,3.35,-3.28,3.28,3.09,-0.10,6.63,6.63,6.65
21.66,3.45,-3.18,3.46,-3.16,3.16,3.10,-0.10,6.60,6.61,6.63
21.87,3.56,-3.04,3.57,-3.03,3.03,3.09,-0.10,6.59,6.60,6.60
22.09,3.68,-2.91,3.68,-2.91,2.91,3.05,-0.10,6.59,6.58,6.59
22.31,3.78,-2.78,3.79,-2.78,2.78,2.98,-0.09,6.56,6.56,6.56
22.54,3.89,-2.66,3.90,-2.65,2.65,2.89,-0.09,6.53,6.54,6.54
22.76,4.01,-2.51,4.01,-2.51,2.51,2.78,-0.09,6.52,6.52,6.52
22.99,4.12,-2.37,4.12,-2.38,2.38,2.66,-0.09,6.50,6.50,6.49
23.22,4.23,-2.23,4.23,-2.24,2.24,2.52,-0.09,6.47,6.48,6.46
23.45,4.35,-2.09,4.34,-2.11,2.11,2.37,-0.09,6.46,6.45,6.44
23.69,4.46,-1.97,4.45,-1.98,1.98,2.22,-0.09,6.44,6.43,6.43
23.92,4.57,-1.84,4.57,-1.85,1.85,2.06,-0.09,6.42,6.41,6.41
24.16,4.68,-1.72,4.68,-1.72,1.72,1.90,-0.09,6.40,6.39,6.40
24.40,4.78,-1.59,4.79,-1.59,1.59,1.74,-0.09,6.37,6.37,6.38
24.65,4.89,-1.47,4.90,-1.46,1.46,1.59,-0.09,6.35,6.35,6.36
24.89,5.00,-1.33,5.01,-1.33,1.33,1.44,-0.09,6.33,6.34,6.33
25.14,5.11,-1.21,5.11,-1.20,1.20,1.29,-0.08,6.32,6.32,6.32
25.39,5.22,-1.08,5.22,-1.08,1.08,1.15,-0.08,6.30,6.30,6.30
25.65,5.33,-0.96,5.33,-0.96,0.96,1.01,-0.08,6.29,6.29,6.29
25.91,5.43,-0.83,5.43,-0.84,0.84,0.88,-0.08,6.27,6.27,6.26
26.16,5.54,-0.71,5.54,-0.72,0.72,0.75,-0.09,6.26,6.25,6.25
26.43,5.64,-0.60,5.64,-0.60,0.60,0.63,-0.09,6.24,6.24,6.24
26.69,5.74,-0.48,5.74,-0.48,0.48,0.51,-0.09,6.22,6.22,6.22
26.96,5.84,-0.37,5.84,-0.37,0.37,0.40,-0.09,6.20,6.21,6.21
27.23,5.94,-0.26,5.94,-0.25,0.25,0.29,-0.09,6.19,6.19,6.19
27.50,6.03,-0.15,6.03,-0.14,0.14,0.18,-0.09,6.17,6.18,6.18
27.77,6.12,-0.04,6.12,-0.04,0.04,0.08,-0.10,6.16,6.16,6.16
28.05,6.22,0.07,6.21,0.06,-0.06,-0.02,-0.10,6.16,6.15,6.15
28.33,6.30,0.17,6.30,0.17,-0.17,-0.11,-0.11,6.14,6.13,6.13
28.62,6.39,0.27,6.38,0.26,-0.26,-0.21,-0.11,6.13,6.12,6.12
28.90,6.46,0.36,6.46,0.36,-0.36,-0.30,-0.12,6.10,6.11,6.10
29.19,6.54,0.46,6.54,0.45,-0.45,-0.38,-0.13,6.09,6.09,6.08
29.48,6.62,0.54,6.62,0.54,-0.54,-0.47,-0.13,6.08,6.08,6.08
29.78,6.69,0.62,6.69,0.62,-0.62,-0.55,-0.14,6.06,6.07,6.07
30.08,6.76,0.70,6.76,0.71,-0.71,-0.63,-0.15,6.05,6.05,6.06
30.38,6.82,0.78,6.82,0.79,-0.79,-0.71,-0.16,6.03,6.03,6.04
30.68,6.88,0.86,6.88,0.87,-0.87,-0.79,-0.18,6.01,6.02,6.02
30.99,6.95,0.95,6.94,0.94,-0.94,-0.86,-0.19,6.01,6.00,6.00
31.30,7.00,1.01,7.00,1.01,-1.01,-0.93,-0.21,5.99,5.99,5.99
31.61,7.05,1.07,7.05,1.08,-1.08,-1.00,-0.22,5.97,5.97,5.98
31.93,7.10,1.15,7.09,1.14,-1.14,-1.07,-0.24,5.96,5.95,5.95
32.24,7.14,1.22,7.14,1.21,-1.21,-1.13,-0.26,5.93,5.93,5.92
32.57,7.18,1.27,7.18,1.27,-1.27,-1.20,-0.28,5.91,5.91,5.91
32.89,7.21,1.32,7.21,1.32,-1.32,-1.26,-0.30,5.89,5.89,5.89
33.22,7.25,1.39,7.25,1.38,-1.38,-1.31,-0.32,5.87,5.87,5.86
33.55,7.27,1.42,7.28,1.43,-1.43,-1.37,-0.35,5.84,5.85,5.85
33.89,7.30,1.47,7.30,1.48,-1.48,-1.42,-0.37,5.82,5.82,5.83
34.23,7.32,1.52,7.33,1.52,-1.52,-1.46,-0.40,5.80,5.80,5.80
34.57,7.35,1.57,7.35,1.57,-1.57,-1.51,-0.43,5.78,5.78,5.78
34.92,7.37,1.61,7.37,1.61,-1.61,-1.55,-0.46,5.76,5.76,5.75
35.27,7.39,1.65,7.39,1.65,-1.65,-1.59,-0.49,5.74,5.74,5.74
35.62,7.40,1.68,7.40,1.68,-1.68,-1.62,-0.52,5.72,5.72,5.72
35.97,7.41,1.72,7.41,1.72,-1.72,-1.65,-0.55,5.69,5.70,5.69
36.33,7.43,1.75,7.43,1.75,-1.75,-1.68,-0.58,5.68,5.67,5.68
36.70,7.43,1.78,7.44,1.78,-1.78,-1.70,-0.62,5.65,5.65,5.65
37.06,7.45,1.82,7.44,1.81,-1.81,-1.72,-0.65,5.64,5.63,5.63
37.43,7.45,1.84,7.45,1.84,-1.84,-1.74,-0.69,5.61,5.61,5.61
37.81,7.45,1.86,7.45,1.86,-1.86,-1.76,-0.73,5.59,5.59,5.59
38.19,7.46,1.89,7.45,1.89,-1.89,-1.77,-0.77,5.57,5.57,5.56
38.57,7.45,1.90,7.45,1.91,-1.91,-1.78,-0.81,5.54,5.54,5.55
38.95,7.45,1.93,7.45,1.93,-1.93,-1.79,-0.85,5.52,5.52,5.52
39.34,7.45,1.95,7.45,1.94,-1.94,-1.80,-0.89,5.50,5.50,5.50
39.74,7.44,1.97,7.44,1.96,-1.96,-1.81,-0.93,5.48,5.48,5.47
40.14,7.44,1.97,7.44,1.98,-1.98,-1.82,-0.97,5.46,5.46,5.47
40.54,7.43,1.99,7.43,1.99,-1.99,-1.82,-1.02,5.44,5.44,5.44
40.94,7.43,2.01,7.43,2.00,-2.00,-1.83,-1.06,5.43,5.42,5.42
41.35,7.42,2.02,7.42,2.01,-2.01,-1.84,-1.11,5.41,5.40,5.40
41.76,7.41,2.02,7.41,2.03,-2.03,-1.84,-1.16,5.38,5.38,5.39
42.18,7.40,2.03,7.40,2.04,-2.04,-1.85,-1.21,5.36,5.36,5.37
42.60,7.39,2.05,7.39,2.05,-2.05,-1.86,-1.26,5.34,5.34,5.34
43.03,7.38,2.04,7.38,2.06,-2.06,-1.86,-1.31,5.32,5.32,5.33
43.46,7.37,2.06,7.37,2.07,-2.07,-1.87,-1.36,5.30,5.30,5.31
43.90,7.37,2.09,7.36,2.08,-2.08,-1.88,-1.41,5.29,5.28,5.28
44.33,7.36,2.10,7.35,2.09,-2.09,-1.89,-1.47,5.27,5.26,5.26
44.78,7.34,2.10,7.34,2.10,-2.10,-1.90,-1.52,5.24,5.24,5.24
45.23,7.33,2.12,7.33,2.11,-2.11,-1.92,-1.58,5.22,5.22,5.21
45.68,7.32,2.13,7.32,2.13,-2.13,-1.93,-1.63,5.19,5.20,5.19
46.13,7.32,2.15,7.32,2.14,-2.14,-1.95,-1.69,5.18,5.18,5.17
46.60,7.31,2.15,7.31,2.15,-2.15,-1.96,-1.75,5.16,5.15,5.16
47.06,7.30,2.16,7.30,2.17,-2.17,-1.98,-1.81,5.13,5.13,5.14
47.53,7.29,2.17,7.29,2.18,-2.18,-2.00,-1.87,5.11,5.11,5.12
48.01,7.28,2.18,7.28,2.20,-2.20,-2.02,-1.93,5.08,5.08,5.10
48.49,7.27,2.20,7.27,2.21,-2.21,-2.04,-1.99,5.06,5.06,5.07
48.97,7.27,2.23,7.27,2.23,-2.23,-2.06,-2.06,5.04,5.04,5.04
49.46,7.26,2.26,7.26,2.25,-2.25,-2.08,-2.12,5.01,5.01,5.00
49.96,7.25,2.28,7.26,2.27,-2.27,-2.11,-2.19,4.98,4.99,4.97
50.46,7.25,2.28,7.25,2.29,-2.29,-2.13,-2.25,4.96,4.96,4.97
50.96,7.25,2.31,7.25,2.31,-2.31,-2.16,-2.32,4.94,4.94,4.94
51.47,7.24,2.33,7.24,2.33,-2.33,-2.18,-2.38,4.91,4.91,4.91
51.99,7.24,2.36,7.24,2.35,-2.35,-2.21,-2.45,4.89,4.88,4.88
52.51,7.24,2.38,7.24,2.38,-2.38,-2.24,-2.51,4.86,4.86,4.86
53.03,7.23,2.39,7.24,2.40,-2.40,-2.27,-2.58,4.83,4.83,4.84
53.56,7.24,2.43,7.24,2.43,-2.43,-2.30,-2.64,4.81,4.80,4.81
54.10,7.24,2.46,7.24,2.46,-2.46,-2.34,-2.71,4.78,4.78,4.78
54.64,7.23,2.48,7.24,2.49,-2.49,-2.37,-2.77,4.74,4.75,4.75
55.18,7.24,2.52,7.24,2.52,-2.52,-2.40,-2.83,4.72,4.72,4.72
55.74,7.24,2.55,7.24,2.55,-2.55,-2.44,-2.90,4.69,4.70,4.69
56.29,7.24,2.57,7.25,2.58,-2.58,-2.48,-2.96,4.66,4.67,4.67
56.86,7.25,2.61,7.25,2.61,-2.61,-2.51,-3.01,4.64,4.64,4.64
57.42,7.26,2.65,7.26,2.64,-2.64,-2.55,-3.07,4.62,4.61,4.61
58.00,7.26,2.68,7.26,2.68,-2.68,-2.59,-3.12,4.58,4.58,4.58
58.58,7.27,2.72,7.27,2.71,-2.71,-2.63,-3.17,4.56,4.55,4.55
59.16,7.28,2.75,7.27,2.75,-2.75,-2.67,-3.22,4.53,4.52,4.53
59.76,7.28,2.78,7.28,2.79,-2.79,-2.72,-3.27,4.49,4.49,4.50
60.35,7.29,2.82,7.29,2.82,-2.82,-2.76,-3.31,4.46,4.46,4.47
60.96,7.29,2.84,7.29,2.86,-2.86,-2.80,-3.35,4.43,4.43,4.45
61.57,7.30,2.90,7.30,2.90,-2.90,-2.85,-3.39,4.40,4.40,4.40
62.18,7.31,2.95,7.31,2.94,-2.94,-2.89,-3.42,4.37,4.37,4.36
62.80,7.32,2.99,7.31,2.98,-2.98,-2.94,-3.45,4.34,4.34,4.33
63.43,7.32,3.03,7.32,3.01,-3.01,-2.99,-3.48,4.31,4.31,4.29
64.07,7.32,3.06,7.33,3.05,-3.05,-3.04,-3.50,4.27,4.27,4.26
64.71,7.33,3.09,7.33,3.09,-3.09,-3.08,-3.52,4.24,4.24,4.24
65.35,7.33,3.12,7.34,3.13,-3.13,-3.13,-3.54,4.20,4.21,4.21
66.01,7.34,3.16,7.34,3.16,-3.16,-3.18,-3.56,4.18,4.18,4.18
66.67,7.35,3.20,7.35,3.20,-3.20,-3.24,-3.57,4.15,4.15,4.15
67.33,7.36,3.24,7.35,3.23,-3.23,-3.29,-3.58,4.13,4.12,4.12
68.01,7.36,3.27,7.36,3.27,-3.27,-3.34,-3.59,4.09,4.09,4.09
68.69,7.37,3.31,7.36,3.31,-3.31,-3.39,-3.60,4.06,4.06,4.06
69.37,7.37,3.35,7.37,3.34,-3.34,-3.45,-3.61,4.03,4.03,4.02
70.07,7.37,3.38,7.37,3.38,-3.38,-3.50,-3.61,3.99,3.99,3.99
70.77,7.38,3.42,7.38,3.42,-3.42,-3.56,-3.62,3.96,3.96,3.96
71.48,7.38,3.46,7.38,3.46,-3.46,-3.61,-3.62,3.92,3.92,3.92
72.19,7.38,3.49,7.38,3.50,-3.50,-3.67,-3.62,3.88,3.88,3.89
72.91,7.38,3.53,7.38,3.54,-3.54,-3.72,-3.63,3.84,3.84,3.85
73.64,7.38,3.58,7.38,3.58,-3.58,-3.78,-3.63,3.80,3.80,3.80
74.38,7.38,3.61,7.38,3.62,-3.62,-3.84,-3.64,3.76,3.76,3.77
75.12,7.39,3.68,7.38,3.66,-3.66,-3.90,-3.64,3.73,3.72,3.71
75.87,7.39,3.72,7.39,3.71,-3.71,-3.95,-3.65,3.68,3.68,3.67
76.63,7.38,3.74,7.38,3.75,-3.75,-4.01,-3.66,3.63,3.63,3.64
77.40,7.38,3.79,7.38,3.80,-3.80,-4.07,-3.67,3.58,3.59,3.59
78.17,7.38,3.85,7.38,3.84,-3.84,-4.13,-3.68,3.54,3.54,3.53
78.95,7.38,3.88,7.38,3.89,-3.89,-4.19,-3.70,3.49,3.49,3.50
79.74,7.37,3.93,7.37,3.94,-3.94,-4.25,-3.71,3.43,3.44,3.44
80.54,7.37,3.98,7.37,3.98,-3.98,-4.31,-3.73,3.39,3.39,3.39
81.35,7.37,4.03,7.36,4.03,-4.03,-4.36,-3.75,3.34,3.34,3.34
82.16,7.36,4.08,7.36,4.07,-4.07,-4.42,-3.78,3.29,3.28,3.28
82.98,7.35,4.11,7.35,4.12,-4.12,-4.48,-3.80,3.23,3.23,3.24
83.81,7.34,4.17,7.34,4.16,-4.16,-4.54,-3.83,3.18,3.18,3.17
84.65,7.32,4.21,7.33,4.21,-4.21,-4.60,-3.87,3.11,3.12,3.11
85.50,7.32,4.26,7.32,4.25,-4.25,-4.65,-3.90,3.07,3.06,3.06
86.35,7.30,4.29,7.30,4.30,-4.30,-4.71,-3.94,3.00,3.01,3.01
87.22,7.28,4.33,7.29,4.34,-4.34,-4.77,-3.98,2.94,2.95,2.95
88.09,7.28,4.39,7.27,4.38,-4.38,-4.82,-4.02,2.90,2.89,2.89
88.97,7.26,4.43,7.26,4.43,-4.43,-4.87,-4.07,2.83,2.83,2.83
89.86,7.24,4.47,7.24,4.47,-4.47,-4.93,-4.12,2.77,2.77,2.77
90.76,7.22,4.52,7.22,4.51,-4.51,-4.98,-4.18,2.71,2.71,2.70
91.66,7.20,4.55,7.20,4.56,-4.56,-5.03,-4.23,2.64,2.65,2.65
92.58,7.18,4.61,7.18,4.60,-4.60,-5.08,-4.29,2.58,2.58,2.57
93.51,7.16,4.63,7.16,4.64,-4.64,-5.13,-4.36,2.52,2.52,2.53
94.44,7.15,4.69,7.14,4.69,-4.69,-5.18,-4.42,2.46,2.46,2.46
95.39,7.12,4.72,7.12,4.73,-4.73,-5.22,-4.49,2.39,2.39,2.40
96.34,7.10,4.78,7.10,4.77,-4.77,-5.27,-4.56,2.33,2.32,2.32
97.30,7.07,4.81,7.07,4.82,-4.82,-5.31,-4.64,2.25,2.26,2.26
98.28,7.05,4.86,7.05,4.86,-4.86,-5.35,-4.71,2.19,2.19,2.19
99.26,7.02,4.91,7.02,4.91,-4.91,-5.39,-4.79,2.11,2.12,2.11
100.25,7.00,4.95,7.00,4.95,-4.95,-5.42,-4.87,2.05,2.05,2.05
101.25,6.97,4.99,6.97,4.99,-4.99,-5.46,-4.95,1.98,1.98,1.98
102.27,6.94,5.04,6.94,5.04,-5.04,-5.49,-5.04,1.90,1.90,1.90
103.29,6.91,5.09,6.91,5.08,-5.08,-5.52,-5.12,1.83,1.83,1.82
104.32,6.88,5.12,6.88,5.12,-5.12,-5.55,-5.20,1.76,1.76,1.76
105.37,6.85,5.16,6.84,5.16,-5.16,-5.57,-5.29,1.69,1.68,1.69
106.42,6.80,5.19,6.81,5.20,-5.20,-5.59,-5.37,1.60,1.61,1.61
107.48,6.77,5.24,6.77,5.24,-5.24,-5.61,-5.46,1.53,1.53,1.53
108.56,6.73,5.27,6.73,5.27,-5.27,-5.63,-5.54,1.46,1.45,1.46
109.64,6.69,5.31,6.69,5.31,-5.31,-5.65,-5.62,1.38,1.38,1.38
110.74,6.65,5.34,6.65,5.35,-5.35,-5.66,-5.70,1.30,1.30,1.31
111.85,6.60,5.37,6.60,5.38,-5.38,-5.67,-5.77,1.22,1.22,1.23
112.97,6.56,5.42,6.56,5.41,-5.41,-5.67,-5.84,1.15,1.15,1.14
114.10,6.51,5.44,6.51,5.45,-5.45,-5.67,-5.91,1.06,1.07,1.07
115.24,6.47,5.48,6.47,5.48,-5.48,-5.67,-5.97,0.99,0.99,0.99
116.39,6.42,5.51,6.42,5.50,-5.50,-5.67,-6.02,0.92,0.92,0.91
117.55,6.37,5.54,6.37,5.53,-5.53,-5.66,-6.07,0.84,0.84,0.83
118.73,6.32,5.56,6.32,5.56,-5.56,-5.66,-6.11,0.76,0.77,0.76
119.92,6.27,5.58,6.27,5.58,-5.58,-5.64,-6.15,0.69,0.69,0.69
121.12,6.22,5.60,6.22,5.60,-5.60,-5.63,-6.17,0.62,0.62,0.62
122.33,6.17,5.62,6.17,5.62,-5.62,-5.61,-6.19,0.55,0.55,0.55
123.55,6.11,5.63,6.11,5.64,-5.64,-5.59,-6.20,0.47,0.47,0.48
124.79,6.06,5.65,6.06,5.65,-5.65,-5.57,-6.20,0.41,0.41,0.41
126.03,6.00,5.65,6.00,5.66,-5.66,-5.54,-6.19,0.34,0.34,0.35
127.29,5.94,5.66,5.94,5.67,-5.67,-5.51,-6.18,0.27,0.27,0.28
128.57,5.88,5.68,5.88,5.67,-5.67,-5.48,-6.15,0.21,0.21,0.20
129.85,5.82,5.68,5.82,5.67,-5.67,-5.45,-6.12,0.15,0.14,0.14
131.15,5.75,5.67,5.75,5.67,-5.67,-5.42,-6.08,0.08,0.08,0.08
132.46,5.69,5.68,5.69,5.67,-5.67,-5.38,-6.03,0.02,0.02,0.01
133.79,5.62,5.65,5.62,5.66,-5.66,-5.34,-5.97,-0.04,-0.04,-0.03
135.12,5.55,5.65,5.55,5.64,-5.64,-5.30,-5.91,-0.09,-0.09,-0.10
136.48,5.48,5.62,5.48,5.63,-5.63,-5.25,-5.84,-0.15,-0.14,-0.14
137.84,5.41,5.60,5.41,5.61,-5.61,-5.21,-5.76,-0.20,-0.19,-0.19
139.22,5.34,5.59,5.34,5.58,-5.58,-5.16,-5.68,-0.24,-0.24,-0.25
140.61,5.27,5.57,5.27,5.55,-5.55,-5.11,-5.60,-0.29,-0.29,-0.30
142.02,5.20,5.52,5.19,5.52,-5.52,-5.06,-5.51,-0.32,-0.33,-0.32
143.44,5.12,5.48,5.12,5.49,-5.49,-5.01,-5.42,-0.37,-0.37,-0.36
144.87,5.04,5.45,5.04,5.45,-5.45,-4.96,-5.33,-0.41,-0.41,-0.41
146.32,4.97,5.42,4.96,5.41,-5.41,-4.90,-5.24,-0.44,-0.45,-0.45
147.78,4.88,5.36,4.88,5.37,-5.37,-4.85,-5.14,-0.49,-0.49,-0.48
149.26,4.81,5.33,4.80,5.33,-5.33,-4.79,-5.05,-0.52,-0.52,-0.52
150.75,4.72,5.28,4.72,5.28,-5.28,-4.73,-4.95,-0.56,-0.56,-0.56
152.26,4.64,5.24,4.64,5.24,-5.24,-4.67,-4.85,-0.60,-0.59,-0.60
153.78,4.56,5.19,4.56,5.19,-5.19,-4.62,-4.76,-0.63,-0.63,-0.63
155.32,4.47,5.13,4.47,5.14,-5.14,-4.56,-4.66,-0.67,-0.66,-0.66
156.88,4.39,5.08,4.39,5.09,-5.09,-4.50,-4.57,-0.70,-0.70,-0.69
158.44,4.30,5.03,4.30,5.03,-5.03,-4.43,-4.48,-0.74,-0.73,-0.73
160.03,4.22,4.99,4.21,4.98,-4.98,-4.37,-4.39,-0.76,-0.77,-0.77
161.63,4.12,4.93,4.13,4.93,-4.93,-4.31,-4.30,-0.81,-0.80,-0.81
163.24,4.04,4.88,4.04,4.87,-4.87,-4.25,-4.21,-0.83,-0.84,-0.84
164.88,3.95,4.82,3.95,4.82,-4.82,-4.19,-4.13,-0.87,-0.87,-0.87
166.53,3.86,4.76,3.85,4.76,-4.76,-4.12,-4.05,-0.90,-0.91,-0.90
168.19,3.76,4.71,3.76,4.71,-4.71,-4.06,-3.97,-0.95,-0.94,-0.95
169.87,3.67,4.65,3.67,4.65,-4.65,-4.00,-3.90,-0.98,-0.98,-0.98
171.57,3.58,4.59,3.58,4.60,-4.60,-3.94,-3.82,-1.02,-1.02,-1.01
173.29,3.48,4.52,3.49,4.54,-4.54,-3.88,-3.75,-1.06,-1.06,-1.04
175.02,3.39,4.48,3.39,4.49,-4.49,-3.81,-3.68,-1.10,-1.10,-1.09
176.77,3.29,4.43,3.30,4.43,-4.43,-3.75,-3.62,-1.14,-1.14,-1.14
178.54,3.20,4.38,3.20,4.37,-4.37,-3.69,-3.56,-1.17,-1.17,-1.18
180.32,3.11,4.32,3.10,4.32,-4.32,-3.63,-3.50,-1.21,-1.21,-1.21
182.13,3.01,4.26,3.01,4.26,-4.26,-3.57,-3.44,-1.25,-1.25,-1.25
183.95,2.91,4.21,2.91,4.20,-4.20,-3.50,-3.39,-1.29,-1.29,-1.30
185.79,2.82,4.16,2.81,4.15,-4.15,-3.44,-3.34,-1.33,-1.33,-1.34
187.65,2.72,4.10,2.71,4.08,-4.08,-3.38,-3.29,-1.36,-1.37,-1.38
189.52,2.61,4.02,2.61,4.02,-4.02,-3.32,-3.24,-1.41,-1.41,-1.42
191.42,2.52,3.97,2.51,3.96,-3.96,-3.26,-3.20,-1.44,-1.44,-1.45
193.33,2.42,3.89,2.42,3.90,-3.90,-3.21,-3.16,-1.48,-1.48,-1.47
195.27,2.32,3.82,2.32,3.83,-3.83,-3.15,-3.12,-1.51,-1.51,-1.50
197.22,2.22,3.76,2.22,3.76,-3.76,-3.09,-3.08,-1.54,-1.54,-1.54
199.19,2.12,3.71,2.12,3.70,-3.70,-3.03,-3.05,-1.58,-1.57,-1.59
201.18,2.03,3.64,2.03,3.63,-3.63,-2.97,-3.02,-1.60,-1.60,-1.61
203.19,1.93,3.56,1.94,3.57,-3.57,-2.92,-2.99,-1.64,-1.63,-1.63
205.23,1.84,3.50,1.85,3.50,-3.50,-2.86,-2.96,-1.66,-1.65,-1.66
207.28,1.75,3.41,1.76,3.44,-3.44,-2.81,-2.93,-1.69,-1.68,-1.66
209.35,1.67,3.37,1.67,3.38,-3.38,-2.75,-2.90,-1.71,-1.70,-1.70
211.44,1.59,3.32,1.59,3.32,-3.32,-2.70,-2.88,-1.73,-1.72,-1.73
213.56,1.51,3.26,1.51,3.25,-3.25,-2.64,-2.85,-1.74,-1.74,-1.75
215.69,1.43,3.18,1.43,3.19,-3.19,-2.59,-2.83,-1.76,-1.76,-1.75
217.85,1.35,3.12,1.36,3.13,-3.13,-2.54,-2.80,-1.78,-1.77,-1.77
220.03,1.29,3.08,1.28,3.07,-3.07,-2.48,-2.78,-1.78,-1.79,-1.79
222.23,1.22,3.03,1.21,3.01,-3.01,-2.43,-2.76,-1.79,-1.80,-1.81
224.45,1.15,2.95,1.14,2.94,-2.94,-2.38,-2.74,-1.79,-1.80,-1.80
226.70,1.07,2.89,1.07,2.88,-2.88,-2.33,-2.71,-1.81,-1.81,-1.82
228.96,1.01,2.83,1.00,2.82,-2.82,-2.28,-2.69,-1.81,-1.81,-1.82
231.25,0.94,2.75,0.94,2.75,-2.75,-2.23,-2.67,-1.81,-1.81,-1.81
233.57,0.87,2.67,0.88,2.69,-2.69,-2.18,-2.64,-1.82,-1.81,-1.80
235.90,0.81,2.61,0.82,2.62,-2.62,-2.13,-2.61,-1.81,-1.80,-1.80
238.26,0.76,2.57,0.76,2.55,-2.55,-2.08,-2.59,-1.79,-1.80,-1.81
240.64,0.70,2.49,0.70,2.49,-2.49,-2.04,-2.56,-1.79,-1.79,-1.79
243.05,0.65,2.43,0.65,2.42,-2.42,-1.99,-2.53,-1.77,-1.78,-1.78
245.48,0.59,2.35,0.59,2.36,-2.36,-1.94,-2.50,-1.77,-1.76,-1.76
247.93,0.54,2.29,0.55,2.29,-2.29,-1.90,-2.46,-1.75,-1.75,-1.75
250.41,0.50,2.24,0.50,2.23,-2.23,-1.85,-2.43,-1.73,-1.73,-1.74
252.92,0.46,2.17,0.46,2.17,-2.17,-1.80,-2.39,-1.71,-1.71,-1.71
255.45,0.41,2.09,0.41,2.11,-2.11,-1.76,-2.35,-1.70,-1.69,-1.68
258.00,0.37,2.03,0.38,2.05,-2.05,-1.71,-2.31,-1.68,-1.67,-1.66
260.58,0.34,1.99,0.34,1.99,-1.99,-1.67,-2.27,-1.65,-1.65,-1.65
263.19,0.30,1.93,0.30,1.93,-1.93,-1.63,-2.22,-1.63,-1.63,-1.63
265.82,0.27,1.88,0.27,1.87,-1.87,-1.58,-2.18,-1.60,-1.61,-1.61
268.48,0.24,1.82,0.24,1.82,-1.82,-1.54,-2.13,-1.58,-1.58,-1.58
271.16,0.21,1.76,0.21,1.77,-1.77,-1.50,-2.08,-1.56,-1.56,-1.55
273.87,0.17,1.71,0.18,1.71,-1.71,-1.45,-2.03,-1.54,-1.54,-1.54
276.61,0.15,1.65,0.15,1.66,-1.66,-1.41,-1.98,-1.51,-1.51,-1.50
279.38,0.12,1.61,0.12,1.61,-1.61,-1.37,-1.92,-1.49,-1.49,-1.49
282.17,0.09,1.56,0.09,1.56,-1.56,-1.33,-1.87,-1.47,-1.47,-1.47
284.99,0.06,1.50,0.06,1.50,-1.50,-1.28,-1.81,-1.44,-1.44,-1.44
287.84,0.03,1.45,0.03,1.45,-1.45,-1.24,-1.76,-1.42,-1.41,-1.42
290.72,0.01,1.39,0.01,1.39,-1.39,-1.20,-1.70,-1.38,-1.39,-1.38
293.63,-0.02,1.35,-0.02,1.34,-1.34,-1.16,-1.64,-1.36,-1.36,-1.37
296.57,-0.05,1.28,-0.05,1.28,-1.28,-1.11,-1.58,-1.33,-1.33,-1.33
299.53,-0.08,1.23,-0.08,1.22,-1.22,-1.07,-1.53,-1.30,-1.30,-1.31
302.53,-0.12,1.16,-0.12,1.16,-1.16,-1.03,-1.47,-1.28,-1.27,-1.28
305.55,-0.15,1.09,-0.15,1.09,-1.09,-0.99,-1.41,-1.24,-1.24,-1.24
308.61,-0.18,1.03,-0.18,1.03,-1.03,-0.95,-1.35,-1.21,-1.21,-1.21
311.69,-0.22,0.96,-0.22,0.96,-0.96,-0.90,-1.29,-1.18,-1.18,-1.18
314.81,-0.25,0.89,-0.26,0.89,-0.89,-0.86,-1.23,-1.14,-1.15,-1.14
317.96,-0.30,0.81,-0.30,0.82,-0.82,-0.82,-1.17,-1.12,-1.12,-1.11
321.14,-0.33,0.76,-0.34,0.75,-0.75,-0.77,-1.12,-1.08,-1.09,-1.09
324.35,-0.38,0.68,-0.38,0.68,-0.68,-0.73,-1.06,-1.06,-1.06,-1.06
327.59,-0.43,0.59,-0.43,0.60,-0.60,-0.68,-1.00,-1.03,-1.03,-1.02
330.87,-0.47,0.53,-0.48,0.53,-0.53,-0.64,-0.94,-1.00,-1.00,-1.00
334.18,-0.52,0.46,-0.53,0.45,-0.45,-0.59,-0.89,-0.97,-0.98,-0.98
337.52,-0.57,0.38,-0.58,0.37,-0.37,-0.54,-0.83,-0.94,-0.95,-0.95
340.90,-0.62,0.31,-0.63,0.30,-0.30,-0.50,-0.78,-0.92,-0.93,-0.93
344.30,-0.68,0.23,-0.68,0.23,-0.23,-0.45,-0.72,-0.91,-0.91,-0.91
347.75,-0.74,0.14,-0.73,0.15,-0.15,-0.40,-0.66,-0.89,-0.89,-0.88
351.23,-0.79,0.08,-0.78,0.08,-0.08,-0.35,-0.61,-0.87,-0.87,-0.87
354.74,-0.85,-0.00,-0.83,0.02,-0.02,-0.29,-0.56,-0.87,-0.85,-0.85
358.28,-0.89,-0.06,-0.88,-0.05,0.05,-0.24,-0.50,-0.84,-0.83,-0.83
361.87,-0.93,-0.12,-0.92,-0.11,0.11,-0.19,-0.45,-0.82,-0.81,-0.81
365.49,-0.97,-0.19,-0.97,-0.17,0.17,-0.13,-0.39,-0.80,-0.79,-0.78
369.14,-1.01,-0.23,-1.00,-0.23,0.23,-0.07,-0.34,-0.78,-0.77,-0.78
372.83,-1.04,-0.28,-1.04,-0.29,0.29,-0.02,-0.29,-0.75,-0.75,-0.76
376.56,-1.06,-0.32,-1.07,-0.34,0.34,0.04,-0.24,-0.72,-0.73,-0.74
380.33,-1.10,-0.39,-1.10,-0.38,0.38,0.10,-0.18,-0.72,-0.72,-0.71
384.13,-1.12,-0.43,-1.12,-0.43,0.43,0.16,-0.13,-0.69,-0.70,-0.69
387.97,-1.14,-0.46,-1.14,-0.47,0.47,0.23,-0.08,-0.67,-0.68,-0.68
391.85,-1.16,-0.50,-1.16,-0.50,0.50,0.29,-0.03,-0.66,-0.66,-0.66
395.77,-1.18,-0.55,-1.17,-0.54,0.54,0.35,0.02,-0.64,-0.63,-0.63
399.73,-1.18,-0.57,-1.19,-0.57,0.57,0.41,0.07,-0.61,-0.61,-0.61
403.72,-1.19,-0.60,-1.19,-0.60,0.60,0.48,0.12,-0.59,-0.59,-0.59
407.76,-1.20,-0.63,-1.19,-0.62,0.62,0.54,0.17,-0.58,-0.57,-0.57
411.84,-1.20,-0.65,-1.19,-0.64,0.64,0.60,0.21,-0.56,-0.55,-0.55
415.96,-1.19,-0.66,-1.18,-0.66,0.66,0.65,0.26,-0.53,-0.53,-0.53
420.12,-1.19,-0.68,-1.18,-0.67,0.67,0.71,0.31,-0.52,-0.51,-0.51
424.32,-1.18,-0.70,-1.16,-0.68,0.68,0.76,0.35,-0.50,-0.48,-0.48
428.56,-1.16,-0.70,-1.15,-0.69,0.69,0.80,0.40,-0.47,-0.46,-0.46
432.85,-1.14,-0.70,-1.14,-0.70,0.70,0.84,0.44,-0.44,-0.44,-0.44
437.18,-1.12,-0.71,-1.12,-0.71,0.71,0.88,0.49,-0.41,-0.41,-0.41
441.55,-1.09,-0.71,-1.11,-0.72,0.72,0.91,0.53,-0.37,-0.39,-0.38
445.96,-1.06,-0.70,-1.09,-0.73,0.73,0.93,0.57,-0.33,-0.36,-0.37
450.42,-1.05,-0.70,-1.08,-0.74,0.74,0.94,0.61,-0.31,-0.34,-0.35
454.93,-1.05,-0.74,-1.06,-0.75,0.75,0.95,0.64,-0.30,-0.31,-0.31
459.48,-1.04,-0.75,-1.05,-0.76,0.76,0.96,0.68,-0.28,-0.28,-0.29
464.07,-1.04,-0.78,-1.04,-0.78,0.78,0.95,0.72,-0.26,-0.26,-0.26
468.71,-1.03,-0.81,-1.02,-0.79,0.79,0.95,0.75,-0.24,-0.23,-0.22
473.40,-1.02,-0.82,-1.01,-0.81,0.81,0.94,0.78,-0.21,-0.20,-0.20
478.13,-1.00,-0.83,-1.00,-0.83,0.83,0.92,0.81,-0.18,-0.17,-0.17
482.91,-0.99,-0.85,-0.98,-0.84,0.84,0.90,0.84,-0.15,-0.14,-0.14
487.74,-0.97,-0.86,-0.97,-0.85,0.85,0.88,0.86,-0.12,-0.12,-0.11
492.62,-0.95,-0.87,-0.95,-0.86,0.86,0.86,0.89,-0.09,-0.09,-0.08
497.55,-0.93,-0.87,-0.93,-0.87,0.87,0.84,0.91,-0.06,-0.06,-0.06
502.52,-0.91,-0.89,-0.91,-0.88,0.88,0.81,0.93,-0.03,-0.03,-0.02
