frequency,raw,error,smoothed,error_smoothed,equalization,parametric_eq,fixed_band_eq,equalized_raw,equalized_smoothed,target
20.00,-9.99,-7.89,-9.99,-7.92,7.92,7.55,2.52,-2.07,-2.07,-2.10
20.20,-9.87,-7.86,-9.87,-7.88,7.88,7.54,2.59,-1.99,-1.99,-2.01
20.40,-9.76,-7.83,-9.75,-7.84,7.84,7.53,2.67,-1.92,-1.92,-1.92
20.61,-9.64,-7.78,-9.64,-7.79,7.79,7.51,2.74,-1.85,-1.85,-1.86
20.81,-9.53,-7.76,-9.52,-7.74,7.74,7.49,2.82,-1.78,-1.78,-1.76
21.02,-9.41,-7.72,-9.41,-7.69,7.69,7.46,2.91,-1.71,-1.71,-1.69
21.23,-9.29,-7.66,-9.29,-7.64,7.64,7.43,2.99,-1.65,-1.65,-1.63
21.44,-9.18,-7.61,-9.17,-7.59,7.59,7.40,3.08,-1.59,-1.59,-1.56
21.66,-9.06,-7.54,-9.06,-7.53,7.53,7.36,3.17,-1.53,-1.53,-1.52
21.87,-8.95,-7.48,-8.94,-7.47,7.47,7.32,3.26,-1.47,-1.47,-1.46
22.09,-8.83,-7.41,-8.83,-7.41,7.41,7.27,3.35,-1.42,-1.42,-1.42
22.31,-8.72,-7.35,-8.72,-7.35,7.35,7.22,3.45,-1.37,-1.37,-1.37
22.54,-8.60,-7.27,-8.60,-7.28,7.28,7.17,3.55,-1.32,-1.32,-1.33
22.76,-8.49,-7.20,-8.49,-7.21,7.21,7.11,3.65,-1.28,-1.28,-1.29
22.99,-8.38,-7.12,-8.37,-7.13,7.13,7.05,3.76,-1.25,-1.24,-1.26
23.22,-8.26,-7.04,-8.26,-7.06,7.06,6.99,3.87,-1.20,-1.20,-1.22
23.45,-8.15,-6.97,-8.15,-6.98,6.98,6.93,3.98,-1.17,-1.17,-1.18
23.69,-8.04,-6.90,-8.03,-6.90,6.90,6.86,4.09,-1.14,-1.13,-1.14
23.92,-7.93,-6.83,-7.92,-6.83,6.83,6.79,4.20,-1.10,-1.10,-1.09
24.16,-7.81,-6.76,-7.81,-6.75,6.75,6.72,4.32,-1.06,-1.06,-1.05
24.40,-7.70,-6.68,-7.70,-6.67,6.67,6.65,4.44,-1.02,-1.03,-1.02
24.65,-7.59,-6.59,-7.59,-6.60,6.60,6.57,4.56,-0.99,-0.99,-1.00
24.89,-7.48,-6.51,-7.48,-6.52,6.52,6.49,4.68,-0.96,-0.96,-0.96
25.14,-7.37,-6.44,-7.37,-6.44,6.44,6.42,4.80,-0.93,-0.93,-0.93
25.39,-7.26,-6.36,-7.26,-6.36,6.36,6.34,4.93,-0.89,-0.89,-0.89
25.65,-7.15,-6.29,-7.15,-6.29,6.29,6.26,5.05,-0.86,-0.86,-0.86
25.91,-7.04,-6.20,-7.04,-6.21,6.21,6.18,5.18,-0.83,-0.83,-0.84
26.16,-6.93,-6.12,-6.93,-6.13,6.13,6.09,5.30,-0.79,-0.80,-0.80
26.43,-6.83,-6.06,-6.83,-6.06,6.06,6.01,5.43,-0.77,-0.77,-0.77
26.69,-6.72,-5.98,-6.72,-5.98,5.98,5.93,5.55,-0.74,-0.74,-0.74
26.96,-6.62,-5.91,-6.62,-5.91,5.91,5.84,5.67,-0.71,-0.71,-0.71
27.23,-6.51,-5.83,-6.51,-5.83,5.83,5.76,5.79,-0.68,-0.68,-0.68
27.50,-6.41,-5.76,-6.41,-5.76,5.76,5.67,5.91,-0.65,-0.65,-0.65
27.77,-6.31,-5.68,-6.30,-5.69,5.69,5.59,6.02,-0.62,-0.62,-0.63
28.05,-6.21,-5.62,-6.20,-5.61,5.61,5.51,6.12,-0.59,-0.59,-0.59
28.33,-6.11,-5.54,-6.10,-5.55,5.55,5.42,6.23,-0.56,-0.56,-0.57
28.62,-6.01,-5.47,-6.01,-5.48,5.48,5.34,6.32,-0.53,-0.53,-0.54
28.90,-5.91,-5.41,-5.91,-5.41,5.41,5.25,6.41,-0.49,-0.50,-0.50
29.19,-5.82,-5.34,-5.82,-5.35,5.35,5.17,6.49,-0.47,-0.47,-0.48
29.48,-5.72,-5.29,-5.73,-5.29,5.29,5.09,6.56,-0.43,-0.44,-0.43
29.78,-5.63,-5.21,-5.64,-5.23,5.23,5.00,6.62,-0.40,-0.41,-0.42
30.08,-5.54,-5.15,-5.56,-5.17,5.17,4.92,6.67,-0.37,-0.39,-0.39
30.38,-5.47,-5.11,-5.47,-5.12,5.12,4.84,6.71,-0.35,-0.36,-0.36
30.68,-5.40,-5.07,-5.39,-5.06,5.06,4.76,6.73,-0.34,-0.33,-0.33
30.99,-5.32,-5.01,-5.31,-5.01,5.01,4.68,6.75,-0.31,-0.30,-0.31
31.30,-5.25,-4.96,-5.24,-4.96,4.96,4.60,6.75,-0.29,-0.28,-0.29
31.61,-5.17,-4.91,-5.16,-4.90,4.90,4.52,6.75,-0.26,-0.26,-0.26
31.93,-5.10,-4.86,-5.09,-4.86,4.86,4.44,6.73,-0.24,-0.23,-0.24
32.24,-5.02,-4.80,-5.02,-4.81,4.81,4.37,6.70,-0.21,-0.21,-0.22
32.57,-4.94,-4.75,-4.94,-4.76,4.76,4.29,6.65,-0.18,-0.19,-0.19
32.89,-4.87,-4.70,-4.87,-4.71,4.71,4.21,6.60,-0.16,-0.17,-0.17
33.22,-4.80,-4.65,-4.80,-4.66,4.66,4.14,6.54,-0.14,-0.15,-0.15
33.55,-4.73,-4.60,-4.74,-4.61,4.61,4.07,6.47,-0.12,-0.13,-0.13
33.89,-4.67,-4.55,-4.67,-4.55,4.55,3.99,6.39,-0.12,-0.11,-0.12
34.23,-4.61,-4.51,-4.60,-4.50,4.50,3.92,6.30,-0.11,-0.10,-0.10
34.57,-4.54,-4.45,-4.53,-4.45,4.45,3.85,6.20,-0.09,-0.09,-0.09
34.92,-4.48,-4.40,-4.47,-4.39,4.39,3.78,6.10,-0.09,-0.08,-0.08
35.27,-4.41,-4.35,-4.40,-4.34,4.34,3.71,5.99,-0.07,-0.07,-0.06
35.62,-4.34,-4.27,-4.34,-4.28,4.28,3.64,5.88,-0.05,-0.06,-0.07
35.97,-4.27,-4.21,-4.28,-4.23,4.23,3.58,5.77,-0.04,-0.05,-0.06
36.33,-4.22,-4.18,-4.22,-4.18,4.18,3.51,5.65,-0.04,-0.05,-0.04
36.70,-4.16,-4.11,-4.16,-4.12,4.12,3.44,5.53,-0.04,-0.04,-0.05
37.06,-4.10,-4.05,-4.10,-4.06,4.06,3.38,5.41,-0.04,-0.04,-0.05
37.43,-4.05,-4.00,-4.05,-4.00,4.00,3.32,5.28,-0.04,-0.04,-0.05
37.81,-4.00,-3.95,-3.99,-3.94,3.94,3.25,5.16,-0.05,-0.04,-0.05
38.19,-3.94,-3.89,-3.93,-3.89,3.89,3.19,5.04,-0.05,-0.05,-0.05
38.57,-3.89,-3.84,-3.88,-3.83,3.83,3.13,4.91,-0.06,-0.05,-0.05
38.95,-3.84,-3.79,-3.83,-3.77,3.77,3.07,4.79,-0.06,-0.05,-0.05
39.34,-3.78,-3.71,-3.78,-3.72,3.72,3.01,4.67,-0.06,-0.06,-0.07
39.74,-3.72,-3.65,-3.73,-3.66,3.66,2.96,4.55,-0.05,-0.06,-0.07
40.14,-3.66,-3.58,-3.68,-3.61,3.61,2.90,4.43,-0.05,-0.07,-0.08
40.54,-3.62,-3.54,-3.63,-3.55,3.55,2.84,4.32,-0.07,-0.07,-0.08
40.94,-3.58,-3.49,-3.58,-3.49,3.49,2.79,4.20,-0.08,-0.08,-0.09
41.35,-3.53,-3.44,-3.53,-3.44,3.44,2.73,4.09,-0.09,-0.09,-0.09
41.76,-3.49,-3.39,-3.48,-3.38,3.38,2.68,3.98,-0.11,-0.10,-0.10
42.18,-3.44,-3.33,-3.43,-3.32,3.32,2.63,3.87,-0.12,-0.11,-0.11
42.60,-3.39,-3.27,-3.38,-3.26,3.26,2.58,3.77,-0.12,-0.12,-0.12
43.03,-3.34,-3.22,-3.33,-3.21,3.21,2.53,3.67,-0.13,-0.13,-0.12
43.46,-3.29,-3.16,-3.29,-3.15,3.15,2.48,3.57,-0.14,-0.14,-0.13
43.90,-3.24,-3.09,-3.25,-3.10,3.10,2.43,3.47,-0.14,-0.15,-0.15
44.33,-3.20,-3.03,-3.20,-3.04,3.04,2.38,3.38,-0.15,-0.16,-0.17
44.78,-3.15,-2.97,-3.16,-2.99,2.99,2.33,3.29,-0.16,-0.17,-0.18
45.23,-3.11,-2.92,-3.11,-2.93,2.93,2.28,3.20,-0.17,-0.18,-0.19
45.68,-3.07,-2.87,-3.07,-2.88,2.88,2.24,3.11,-0.19,-0.19,-0.20
46.13,-3.03,-2.82,-3.03,-2.83,2.83,2.19,3.03,-0.20,-0.20,-0.21
46.60,-2.99,-2.78,-2.98,-2.77,2.77,2.15,2.95,-0.21,-0.21,-0.21
47.06,-2.95,-2.73,-2.94,-2.72,2.72,2.10,2.87,-0.22,-0.22,-0.22
47.53,-2.91,-2.68,-2.90,-2.67,2.67,2.06,2.80,-0.23,-0.23,-0.23
48.01,-2.87,-2.64,-2.86,-2.63,2.63,2.02,2.72,-0.24,-0.24,-0.23
48.49,-2.83,-2.59,-2.82,-2.58,2.58,1.98,2.65,-0.25,-0.24,-0.24
48.97,-2.78,-2.53,-2.79,-2.54,2.54,1.94,2.58,-0.24,-0.25,-0.25
49.46,-2.74,-2.47,-2.75,-2.49,2.49,1.90,2.51,-0.24,-0.25,-0.27
49.96,-2.70,-2.42,-2.71,-2.45,2.45,1.86,2.45,-0.25,-0.26,-0.28
50.46,-2.67,-2.40,-2.67,-2.41,2.41,1.82,2.39,-0.26,-0.26,-0.27
50.96,-2.63,-2.36,-2.63,-2.36,2.36,1.78,2.33,-0.26,-0.27,-0.27
51.47,-2.60,-2.32,-2.59,-2.32,2.32,1.74,2.27,-0.28,-0.27,-0.28
51.99,-2.56,-2.28,-2.55,-2.28,2.28,1.70,2.21,-0.28,-0.27,-0.28
52.51,-2.52,-2.24,-2.51,-2.23,2.23,1.67,2.15,-0.28,-0.28,-0.28
53.03,-2.48,-2.20,-2.47,-2.19,2.19,1.63,2.10,-0.29,-0.28,-0.28
53.56,-2.44,-2.16,-2.43,-2.15,2.15,1.60,2.05,-0.29,-0.29,-0.28
54.10,-2.40,-2.11,-2.39,-2.10,2.10,1.56,2.00,-0.30,-0.29,-0.29
54.64,-2.36,-2.06,-2.35,-2.05,2.05,1.53,1.95,-0.30,-0.30,-0.30
55.18,-2.32,-2.01,-2.31,-2.01,2.01,1.49,1.90,-0.31,-0.31,-0.31
55.74,-2.27,-1.94,-2.27,-1.96,1.96,1.46,1.85,-0.31,-0.32,-0.33
56.29,-2.23,-1.90,-2.23,-1.90,1.90,1.43,1.80,-0.32,-0.33,-0.33
56.86,-2.20,-1.85,-2.19,-1.85,1.85,1.40,1.76,-0.35,-0.34,-0.35
57.42,-2.16,-1.79,-2.16,-1.80,1.80,1.37,1.71,-0.36,-0.36,-0.37
58.00,-2.12,-1.74,-2.12,-1.75,1.75,1.33,1.67,-0.37,-0.38,-0.38
58.58,-2.09,-1.69,-2.09,-1.69,1.69,1.30,1.63,-0.39,-0.40,-0.40
59.16,-2.05,-1.64,-2.06,-1.64,1.64,1.27,1.59,-0.41,-0.42,-0.41
59.76,-2.01,-1.58,-2.03,-1.59,1.59,1.24,1.54,-0.42,-0.44,-0.43
60.35,-1.99,-1.53,-2.00,-1.54,1.54,1.22,1.50,-0.45,-0.46,-0.46
60.96,-1.98,-1.51,-1.97,-1.49,1.49,1.19,1.46,-0.49,-0.49,-0.47
61.57,-1.96,-1.44,-1.95,-1.44,1.44,1.16,1.42,-0.52,-0.51,-0.52
62.18,-1.93,-1.38,-1.92,-1.39,1.39,1.13,1.38,-0.54,-0.53,-0.55
62.80,-1.91,-1.35,-1.90,-1.34,1.34,1.10,1.34,-0.57,-0.56,-0.56
63.43,-1.88,-1.28,-1.87,-1.29,1.29,1.08,1.30,-0.58,-0.58,-0.60
64.07,-1.86,-1.24,-1.85,-1.25,1.25,1.05,1.26,-0.61,-0.60,-0.62
64.71,-1.83,-1.20,-1.83,-1.21,1.21,1.02,1.23,-0.62,-0.62,-0.63
65.35,-1.81,-1.16,-1.81,-1.17,1.17,1.00,1.19,-0.64,-0.64,-0.65
66.01,-1.79,-1.13,-1.78,-1.13,1.13,0.97,1.15,-0.65,-0.65,-0.66
66.67,-1.76,-1.09,-1.76,-1.10,1.10,0.94,1.11,-0.66,-0.66,-0.67
67.33,-1.74,-1.06,-1.74,-1.06,1.06,0.92,1.07,-0.67,-0.67,-0.68
68.01,-1.71,-1.02,-1.72,-1.03,1.03,0.89,1.04,-0.68,-0.68,-0.69
68.69,-1.69,-0.99,-1.69,-1.00,1.00,0.87,1.00,-0.69,-0.69,-0.70
69.37,-1.67,-0.97,-1.67,-0.97,0.97,0.85,0.96,-0.70,-0.70,-0.70
70.07,-1.66,-0.95,-1.65,-0.94,0.94,0.82,0.92,-0.72,-0.71,-0.71
70.77,-1.64,-0.93,-1.63,-0.91,0.91,0.80,0.88,-0.73,-0.72,-0.71
71.48,-1.62,-0.90,-1.61,-0.88,0.88,0.77,0.85,-0.74,-0.73,-0.72
72.19,-1.59,-0.85,-1.58,-0.85,0.85,0.75,0.81,-0.74,-0.74,-0.74
72.91,-1.57,-0.83,-1.56,-0.82,0.82,0.73,0.77,-0.75,-0.75,-0.74
73.64,-1.55,-0.79,-1.55,-0.79,0.79,0.71,0.74,-0.76,-0.76,-0.76
74.38,-1.53,-0.76,-1.53,-0.76,0.76,0.68,0.70,-0.77,-0.77,-0.77
75.12,-1.52,-0.73,-1.52,-0.74,0.74,0.66,0.66,-0.78,-0.78,-0.79
75.87,-1.50,-0.70,-1.51,-0.71,0.71,0.64,0.63,-0.78,-0.80,-0.80
76.63,-1.49,-0.68,-1.50,-0.69,0.69,0.62,0.59,-0.80,-0.81,-0.81
77.40,-1.48,-0.65,-1.49,-0.67,0.67,0.59,0.55,-0.81,-0.82,-0.83
78.17,-1.47,-0.62,-1.49,-0.65,0.65,0.57,0.52,-0.81,-0.83,-0.85
78.95,-1.48,-0.63,-1.48,-0.64,0.64,0.55,0.48,-0.84,-0.84,-0.85
79.74,-1.49,-0.63,-1.48,-0.63,0.63,0.53,0.45,-0.86,-0.85,-0.86
80.54,-1.50,-0.63,-1.48,-0.62,0.62,0.51,0.41,-0.87,-0.86,-0.87
81.35,-1.50,-0.62,-1.49,-0.62,0.62,0.49,0.37,-0.88,-0.87,-0.88
82.16,-1.50,-0.61,-1.49,-0.62,0.62,0.47,0.34,-0.88,-0.87,-0.89
82.98,-1.50,-0.62,-1.49,-0.61,0.61,0.44,0.30,-0.88,-0.88,-0.88
83.81,-1.50,-0.61,-1.49,-0.61,0.61,0.42,0.27,-0.88,-0.88,-0.89
84.65,-1.50,-0.60,-1.50,-0.61,0.61,0.40,0.23,-0.88,-0.88,-0.90
85.50,-1.50,-0.61,-1.50,-0.61,0.61,0.38,0.20,-0.89,-0.89,-0.89
86.35,-1.50,-0.61,-1.50,-0.61,0.61,0.36,0.16,-0.89,-0.89,-0.89
87.22,-1.50,-0.60,-1.50,-0.61,0.61,0.34,0.12,-0.89,-0.89,-0.90
88.09,-1.50,-0.60,-1.50,-0.60,0.60,0.32,0.09,-0.90,-0.90,-0.90
88.97,-1.50,-0.59,-1.50,-0.59,0.59,0.30,0.05,-0.91,-0.91,-0.91
89.86,-1.50,-0.58,-1.50,-0.57,0.57,0.28,0.02,-0.92,-0.92,-0.92
90.76,-1.50,-0.56,-1.50,-0.56,0.56,0.26,-0.02,-0.94,-0.94,-0.94
91.66,-1.50,-0.54,-1.50,-0.54,0.54,0.23,-0.06,-0.96,-0.96,-0.96
92.58,-1.50,-0.51,-1.50,-0.51,0.51,0.21,-0.09,-0.98,-0.98,-0.99
93.51,-1.50,-0.49,-1.50,-0.48,0.48,0.19,-0.13,-1.01,-1.01,-1.01
94.44,-1.50,-0.46,-1.50,-0.45,0.45,0.17,-0.17,-1.05,-1.05,-1.04
95.39,-1.50,-0.42,-1.50,-0.41,0.41,0.15,-0.20,-1.09,-1.09,-1.08
96.34,-1.50,-0.38,-1.50,-0.37,0.37,0.13,-0.24,-1.13,-1.13,-1.12
97.30,-1.50,-0.32,-1.50,-0.32,0.32,0.11,-0.27,-1.18,-1.18,-1.18
98.28,-1.50,-0.27,-1.50,-0.27,0.27,0.08,-0.31,-1.23,-1.23,-1.23
99.26,-1.50,-0.22,-1.50,-0.22,0.22,0.06,-0.35,-1.28,-1.28,-1.28
100.25,-1.50,-0.16,-1.50,-0.16,0.16,0.04,-0.38,-1.33,-1.33,-1.34
101.25,-1.50,-0.10,-1.50,-0.11,0.11,0.02,-0.42,-1.39,-1.39,-1.40
102.27,-1.50,-0.04,-1.50,-0.05,0.05,-0.01,-0.45,-1.45,-1.45,-1.46
103.29,-1.50,0.02,-1.50,0.01,-0.01,-0.03,-0.49,-1.51,-1.51,-1.52
104.32,-1.50,0.07,-1.50,0.07,-0.07,-0.05,-0.52,-1.57,-1.57,-1.57
105.37,-1.50,0.14,-1.50,0.13,-0.13,-0.07,-0.56,-1.63,-1.63,-1.64
106.42,-1.50,0.20,-1.50,0.19,-0.19,-0.10,-0.59,-1.69,-1.69,-1.70
107.48,-1.50,0.25,-1.50,0.25,-0.25,-0.12,-0.62,-1.75,-1.75,-1.75
108.56,-1.50,0.31,-1.50,0.31,-0.31,-0.15,-0.66,-1.80,-1.80,-1.81
109.64,-1.50,0.37,-1.50,0.36,-0.36,-0.17,-0.69,-1.86,-1.86,-1.87
110.74,-1.50,0.42,-1.50,0.42,-0.42,-0.20,-0.72,-1.92,-1.92,-1.92
111.85,-1.50,0.46,-1.50,0.47,-0.47,-0.22,-0.75,-1.97,-1.97,-1.96
112.97,-1.50,0.53,-1.50,0.52,-0.52,-0.25,-0.77,-2.02,-2.02,-2.03
114.10,-1.50,0.57,-1.50,0.57,-0.57,-0.27,-0.80,-2.07,-2.07,-2.07
115.24,-1.50,0.62,-1.50,0.61,-0.61,-0.30,-0.83,-2.11,-2.11,-2.12
116.39,-1.50,0.67,-1.50,0.66,-0.66,-0.33,-0.85,-2.15,-2.16,-2.17
117.55,-1.50,0.71,-1.50,0.70,-0.70,-0.35,-0.87,-2.19,-2.20,-2.21
118.73,-1.50,0.75,-1.50,0.74,-0.74,-0.38,-0.89,-2.23,-2.23,-2.25
119.92,-1.50,0.78,-1.50,0.77,-0.77,-0.41,-0.91,-2.27,-2.27,-2.28
121.12,-1.50,0.81,-1.49,0.81,-0.81,-0.44,-0.93,-2.31,-2.30,-2.31
122.33,-1.50,0.84,-1.49,0.85,-0.85,-0.47,-0.94,-2.34,-2.34,-2.34
123.55,-1.50,0.87,-1.49,0.88,-0.88,-0.50,-0.95,-2.38,-2.37,-2.37
124.79,-1.50,0.90,-1.48,0.91,-0.91,-0.53,-0.96,-2.41,-2.40,-2.40
126.03,-1.50,0.92,-1.48,0.94,-0.94,-0.56,-0.97,-2.44,-2.42,-2.42
127.29,-1.49,0.96,-1.48,0.97,-0.97,-0.59,-0.98,-2.46,-2.45,-2.45
128.57,-1.48,1.01,-1.48,1.00,-1.00,-0.62,-0.98,-2.47,-2.48,-2.49
129.85,-1.48,1.03,-1.49,1.02,-1.02,-0.65,-0.98,-2.50,-2.51,-2.51
131.15,-1.48,1.06,-1.50,1.04,-1.04,-0.69,-0.98,-2.52,-2.54,-2.54
132.46,-1.49,1.09,-1.51,1.06,-1.06,-0.72,-0.98,-2.54,-2.57,-2.58
133.79,-1.51,1.09,-1.53,1.07,-1.07,-0.75,-0.98,-2.58,-2.60,-2.60
135.12,-1.54,1.09,-1.54,1.08,-1.08,-0.78,-0.97,-2.62,-2.63,-2.63
136.48,-1.55,1.11,-1.57,1.09,-1.09,-0.82,-0.97,-2.64,-2.66,-2.66
137.84,-1.59,1.10,-1.59,1.10,-1.10,-0.85,-0.96,-2.69,-2.69,-2.69
139.22,-1.61,1.13,-1.61,1.11,-1.11,-0.89,-0.95,-2.72,-2.73,-2.74
140.61,-1.65,1.12,-1.64,1.12,-1.12,-0.92,-0.94,-2.77,-2.76,-2.77
142.02,-1.70,1.09,-1.67,1.12,-1.12,-0.95,-0.93,-2.82,-2.79,-2.79
143.44,-1.72,1.11,-1.70,1.13,-1.13,-0.99,-0.91,-2.85,-2.83,-2.83
144.87,-1.75,1.12,-1.73,1.14,-1.14,-1.02,-0.90,-2.88,-2.86,-2.87
146.32,-1.76,1.15,-1.75,1.15,-1.15,-1.06,-0.89,-2.90,-2.90,-2.91
147.78,-1.79,1.15,-1.78,1.16,-1.16,-1.09,-0.87,-2.94,-2.94,-2.94
149.26,-1.80,1.17,-1.80,1.17,-1.17,-1.12,-0.86,-2.97,-2.98,-2.97
150.75,-1.83,1.19,-1.83,1.19,-1.19,-1.16,-0.85,-3.02,-3.01,-3.02
152.26,-1.85,1.21,-1.85,1.20,-1.20,-1.19,-0.83,-3.05,-3.05,-3.06
153.78,-1.87,1.22,-1.87,1.22,-1.22,-1.22,-0.82,-3.09,-3.10,-3.09
155.32,-1.89,1.25,-1.90,1.24,-1.24,-1.25,-0.80,-3.13,-3.14,-3.14
156.88,-1.92,1.25,-1.92,1.26,-1.26,-1.28,-0.79,-3.18,-3.18,-3.17
158.44,-1.94,1.29,-1.94,1.28,-1.28,-1.31,-0.77,-3.22,-3.22,-3.23
160.03,-1.98,1.29,-1.97,1.29,-1.29,-1.34,-0.76,-3.27,-3.27,-3.27
161.63,-2.00,1.32,-2.00,1.31,-1.31,-1.36,-0.74,-3.30,-3.31,-3.32
163.24,-2.02,1.34,-2.03,1.32,-1.32,-1.39,-0.73,-3.34,-3.35,-3.36
164.88,-2.06,1.34,-2.06,1.33,-1.33,-1.41,-0.72,-3.39,-3.39,-3.40
166.53,-2.09,1.35,-2.09,1.34,-1.34,-1.43,-0.71,-3.43,-3.44,-3.44
168.19,-2.12,1.36,-2.12,1.35,-1.35,-1.44,-0.69,-3.47,-3.48,-3.48
169.87,-2.17,1.35,-2.15,1.36,-1.36,-1.46,-0.68,-3.53,-3.52,-3.52
171.57,-2.21,1.34,-2.19,1.37,-1.37,-1.47,-0.67,-3.57,-3.55,-3.55
173.29,-2.24,1.35,-2.22,1.37,-1.37,-1.48,-0.66,-3.60,-3.59,-3.59
175.02,-2.27,1.36,-2.26,1.36,-1.36,-1.49,-0.65,-3.63,-3.62,-3.63
176.77,-2.29,1.37,-2.30,1.36,-1.36,-1.50,-0.64,-3.64,-3.65,-3.66
178.54,-2.31,1.38,-2.33,1.35,-1.35,-1.50,-0.63,-3.65,-3.68,-3.69
180.32,-2.34,1.38,-2.37,1.33,-1.33,-1.50,-0.62,-3.67,-3.71,-3.72
182.13,-2.38,1.36,-2.41,1.32,-1.32,-1.49,-0.62,-3.70,-3.73,-3.74
183.95,-2.45,1.31,-2.45,1.31,-1.31,-1.48,-0.61,-3.76,-3.75,-3.76
185.79,-2.49,1.29,-2.48,1.29,-1.29,-1.47,-0.60,-3.78,-3.77,-3.78
187.65,-2.54,1.26,-2.52,1.28,-1.28,-1.46,-0.60,-3.81,-3.79,-3.80
189.52,-2.58,1.23,-2.55,1.26,-1.26,-1.44,-0.59,-3.83,-3.81,-3.81
191.42,-2.62,1.21,-2.59,1.24,-1.24,-1.42,-0.59,-3.85,-3.83,-3.83
193.33,-2.65,1.19,-2.63,1.21,-1.21,-1.40,-0.58,-3.86,-3.84,-3.84
195.27,-2.67,1.18,-2.66,1.19,-1.19,-1.38,-0.58,-3.86,-3.85,-3.85
197.22,-2.68,1.19,-2.70,1.17,-1.17,-1.35,-0.57,-3.85,-3.87,-3.87
199.19,-2.71,1.18,-2.73,1.15,-1.15,-1.32,-0.57,-3.86,-3.88,-3.89
201.18,-2.75,1.15,-2.76,1.13,-1.13,-1.29,-0.57,-3.88,-3.89,-3.90
203.19,-2.79,1.11,-2.79,1.11,-1.11,-1.25,-0.56,-3.90,-3.90,-3.90
205.23,-2.83,1.09,-2.82,1.10,-1.10,-1.21,-0.56,-3.93,-3.91,-3.92
207.28,-2.87,1.05,-2.85,1.08,-1.08,-1.17,-0.56,-3.95,-3.93,-3.92
209.35,-2.89,1.05,-2.88,1.06,-1.06,-1.13,-0.55,-3.94,-3.94,-3.94
211.44,-2.91,1.05,-2.92,1.03,-1.03,-1.09,-0.55,-3.94,-3.95,-3.96
213.56,-2.94,1.03,-2.95,1.01,-1.01,-1.04,-0.55,-3.94,-3.96,-3.97
215.69,-2.98,0.99,-2.99,0.98,-0.98,-1.00,-0.54,-3.96,-3.97,-3.97
217.85,-3.04,0.95,-3.04,0.95,-0.95,-0.95,-0.54,-3.99,-3.98,-3.99
220.03,-3.07,0.93,-3.08,0.92,-0.92,-0.90,-0.54,-3.98,-4.00,-4.00
222.23,-3.11,0.91,-3.12,0.89,-0.89,-0.85,-0.53,-4.00,-4.01,-4.02
224.45,-3.16,0.86,-3.16,0.86,-0.86,-0.80,-0.52,-4.02,-4.02,-4.02
226.70,-3.22,0.82,-3.21,0.83,-0.83,-0.75,-0.52,-4.04,-4.04,-4.04
228.96,-3.28,0.77,-3.26,0.79,-0.79,-0.70,-0.51,-4.07,-4.05,-4.05
231.25,-3.32,0.74,-3.31,0.76,-0.76,-0.65,-0.50,-4.08,-4.07,-4.06
233.57,-3.37,0.71,-3.36,0.72,-0.72,-0.59,-0.49,-4.09,-4.08,-4.08
235.90,-3.42,0.67,-3.41,0.69,-0.69,-0.54,-0.48,-4.10,-4.09,-4.09
238.26,-3.45,0.66,-3.46,0.65,-0.65,-0.48,-0.47,-4.10,-4.11,-4.11
240.64,-3.50,0.63,-3.51,0.61,-0.61,-0.43,-0.46,-4.11,-4.12,-4.13
243.05,-3.55,0.59,-3.56,0.57,-0.57,-0.38,-0.44,-4.12,-4.13,-4.14
245.48,-3.61,0.54,-3.61,0.53,-0.53,-0.32,-0.43,-4.14,-4.14,-4.15
247.93,-3.69,0.47,-3.66,0.48,-0.48,-0.27,-0.41,-4.17,-4.15,-4.16
250.41,-3.72,0.45,-3.71,0.44,-0.44,-0.21,-0.39,-4.16,-4.15,-4.17
252.92,-3.77,0.39,-3.76,0.39,-0.39,-0.16,-0.37,-4.16,-4.15,-4.16
255.45,-3.81,0.35,-3.81,0.34,-0.34,-0.10,-0.35,-4.14,-4.15,-4.16
258.00,-3.85,0.30,-3.87,0.28,-0.28,-0.05,-0.32,-4.13,-4.15,-4.15
260.58,-3.93,0.22,-3.92,0.22,-0.22,0.01,-0.30,-4.15,-4.14,-4.15
263.19,-3.98,0.16,-3.98,0.15,-0.15,0.06,-0.27,-4.13,-4.13,-4.14
265.82,-4.05,0.08,-4.03,0.09,-0.09,0.12,-0.24,-4.14,-4.12,-4.13
268.48,-4.08,0.03,-4.09,0.02,-0.02,0.17,-0.21,-4.10,-4.11,-4.11
271.16,-4.12,-0.03,-4.14,-0.05,0.05,0.23,-0.18,-4.07,-4.09,-4.09
273.87,-4.19,-0.11,-4.19,-0.12,0.12,0.28,-0.15,-4.07,-4.08,-4.08
276.61,-4.25,-0.20,-4.25,-0.19,0.19,0.34,-0.11,-4.06,-4.06,-4.05
279.38,-4.32,-0.27,-4.31,-0.26,0.26,0.39,-0.08,-4.06,-4.05,-4.05
282.17,-4.37,-0.34,-4.36,-0.33,0.33,0.45,-0.04,-4.04,-4.03,-4.03
284.99,-4.42,-0.40,-4.42,-0.40,0.40,0.50,-0.00,-4.01,-4.01,-4.02
287.84,-4.48,-0.48,-4.47,-0.48,0.48,0.56,0.04,-4.00,-4.00,-4.00
290.72,-4.52,-0.54,-4.52,-0.55,0.55,0.61,0.08,-3.97,-3.98,-3.98
293.63,-4.57,-0.60,-4.58,-0.62,0.62,0.67,0.12,-3.95,-3.96,-3.97
296.57,-4.63,-0.69,-4.63,-0.69,0.69,0.72,0.16,-3.94,-3.94,-3.94
299.53,-4.68,-0.75,-4.68,-0.76,0.76,0.78,0.20,-3.92,-3.92,-3.93
302.53,-4.74,-0.82,-4.72,-0.82,0.82,0.83,0.25,-3.92,-3.90,-3.92
305.55,-4.78,-0.89,-4.77,-0.89,0.89,0.89,0.29,-3.89,-3.88,-3.89
308.61,-4.82,-0.95,-4.81,-0.95,0.95,0.94,0.34,-3.86,-3.86,-3.87
311.69,-4.87,-1.03,-4.86,-1.02,1.02,1.00,0.39,-3.85,-3.84,-3.84
314.81,-4.90,-1.10,-4.90,-1.09,1.09,1.05,0.44,-3.81,-3.82,-3.80
317.96,-4.94,-1.15,-4.94,-1.15,1.15,1.11,0.49,-3.79,-3.79,-3.79
321.14,-4.97,-1.20,-4.98,-1.21,1.21,1.16,0.54,-3.75,-3.77,-3.77
324.35,-5.01,-1.26,-5.02,-1.28,1.28,1.22,0.59,-3.73,-3.75,-3.75
327.59,-5.05,-1.32,-5.06,-1.34,1.34,1.27,0.64,-3.71,-3.72,-3.73
330.87,-5.10,-1.39,-5.09,-1.39,1.39,1.33,0.69,-3.70,-3.70,-3.71
334.18,-5.15,-1.47,-5.13,-1.45,1.45,1.39,0.75,-3.69,-3.68,-3.68
337.52,-5.19,-1.53,-5.16,-1.51,1.51,1.44,0.80,-3.68,-3.65,-3.66
340.90,-5.22,-1.58,-5.20,-1.57,1.57,1.50,0.86,-3.65,-3.63,-3.64
344.30,-5.25,-1.64,-5.24,-1.63,1.63,1.55,0.91,-3.62,-3.61,-3.61
347.75,-5.26,-1.67,-5.27,-1.69,1.69,1.60,0.97,-3.57,-3.58,-3.59
351.23,-5.28,-1.72,-5.30,-1.75,1.75,1.66,1.03,-3.53,-3.56,-3.56
354.74,-5.32,-1.79,-5.34,-1.80,1.80,1.71,1.09,-3.51,-3.53,-3.53
358.28,-5.36,-1.84,-5.37,-1.86,1.86,1.77,1.15,-3.50,-3.51,-3.52
361.87,-5.40,-1.91,-5.40,-1.92,1.92,1.82,1.21,-3.48,-3.48,-3.49
365.49,-5.44,-1.98,-5.44,-1.97,1.97,1.87,1.27,-3.46,-3.46,-3.46
369.14,-5.48,-2.03,-5.47,-2.03,2.03,1.92,1.34,-3.45,-3.44,-3.45
372.83,-5.51,-2.09,-5.50,-2.09,2.09,1.97,1.40,-3.42,-3.41,-3.42
376.56,-5.54,-2.14,-5.53,-2.14,2.14,2.02,1.46,-3.40,-3.39,-3.40
380.33,-5.56,-2.19,-5.57,-2.20,2.20,2.07,1.53,-3.36,-3.37,-3.37
384.13,-5.59,-2.23,-5.60,-2.24,2.24,2.11,1.59,-3.34,-3.35,-3.36
387.97,-5.62,-2.28,-5.63,-2.29,2.29,2.16,1.66,-3.33,-3.34,-3.34
391.85,-5.65,-2.32,-5.65,-2.33,2.33,2.20,1.73,-3.32,-3.32,-3.33
395.77,-5.68,-2.38,-5.67,-2.36,2.36,2.24,1.79,-3.32,-3.31,-3.30
399.73,-5.70,-2.41,-5.69,-2.39,2.39,2.28,1.86,-3.31,-3.30,-3.29
403.72,-5.72,-2.43,-5.70,-2.41,2.41,2.32,1.93,-3.31,-3.29,-3.29
407.76,-5.74,-2.46,-5.71,-2.43,2.43,2.36,1.99,-3.31,-3.28,-3.28
411.84,-5.74,-2.47,-5.72,-2.44,2.44,2.39,2.06,-3.30,-3.28,-3.27
415.96,-5.73,-2.45,-5.72,-2.45,2.45,2.42,2.12,-3.28,-3.27,-3.28
420.12,-5.72,-2.44,-5.73,-2.45,2.45,2.45,2.19,-3.27,-3.27,-3.28
424.32,-5.72,-2.44,-5.73,-2.45,2.45,2.48,2.25,-3.26,-3.27,-3.28
428.56,-5.72,-2.44,-5.73,-2.45,2.45,2.50,2.31,-3.27,-3.28,-3.28
432.85,-5.72,-2.43,-5.73,-2.45,2.45,2.52,2.37,-3.27,-3.28,-3.29
437.18,-5.72,-2.43,-5.73,-2.44,2.44,2.53,2.42,-3.27,-3.28,-3.29
