frequency,raw,error,smoothed,error_smoothed,equalization,parametric_eq,fixed_band_eq,equalized_raw,equalized_smoothed,target
20.00,-9.50,-9.97,-9.40,-9.90,9.90,9.84,4.30,0.40,0.49,0.47
20.20,-9.46,-9.96,-9.42,-9.93,9.93,9.86,4.41,0.47,0.51,0.50
20.40,-9.43,-9.96,-9.42,-9.96,9.96,9.88,4.53,0.53,0.53,0.53
20.61,-9.36,-9.91,-9.43,-9.98,9.98,9.90,4.65,0.62,0.55,0.55
20.81,-9.35,-9.93,-9.42,-9.99,9.99,9.92,4.77,0.64,0.57,0.58
21.02,-9.31,-9.92,-9.42,-10.00,10.00,9.93,4.90,0.69,0.59,0.61
21.23,-9.33,-9.95,-9.41,-10.01,10.01,9.94,5.03,0.68,0.60,0.62
21.44,-9.37,-10.00,-9.39,-10.00,10.00,9.94,5.17,0.63,0.61,0.63
21.66,-9.40,-10.04,-9.37,-10.00,10.00,9.94,5.30,0.60,0.62,0.64
21.87,-9.40,-10.04,-9.35,-9.98,9.98,9.94,5.45,0.58,0.63,0.64
22.09,-9.39,-10.04,-9.32,-9.96,9.96,9.93,5.59,0.57,0.64,0.65
22.31,-9.33,-9.98,-9.29,-9.93,9.93,9.92,5.74,0.60,0.64,0.65
22.54,-9.28,-9.93,-9.26,-9.90,9.90,9.91,5.89,0.62,0.65,0.64
22.76,-9.22,-9.86,-9.22,-9.86,9.86,9.90,6.05,0.64,0.65,0.64
22.99,-9.16,-9.79,-9.17,-9.82,9.82,9.88,6.21,0.66,0.64,0.63
23.22,-9.13,-9.76,-9.12,-9.76,9.76,9.86,6.38,0.63,0.64,0.63
23.45,-9.08,-9.71,-9.06,-9.70,9.70,9.84,6.55,0.62,0.64,0.63
23.69,-9.00,-9.63,-8.99,-9.63,9.63,9.81,6.72,0.63,0.64,0.63
23.92,-8.92,-9.55,-8.92,-9.56,9.56,9.78,6.90,0.64,0.64,0.63
24.16,-8.84,-9.48,-8.85,-9.49,9.49,9.75,7.08,0.65,0.63,0.64
24.40,-8.76,-9.40,-8.79,-9.42,9.42,9.72,7.27,0.66,0.63,0.64
24.65,-8.71,-9.34,-8.73,-9.36,9.36,9.68,7.45,0.64,0.63,0.63
24.89,-8.64,-9.27,-8.67,-9.30,9.30,9.65,7.65,0.66,0.63,0.63
25.14,-8.60,-9.23,-8.61,-9.24,9.24,9.61,7.84,0.64,0.62,0.63
25.39,-8.56,-9.18,-8.56,-9.18,9.18,9.57,8.04,0.62,0.62,0.62
25.65,-8.51,-9.13,-8.51,-9.13,9.13,9.53,8.24,0.62,0.62,0.62
25.91,-8.48,-9.09,-8.46,-9.08,9.08,9.49,8.44,0.60,0.62,0.61
26.16,-8.45,-9.06,-8.43,-9.04,9.04,9.44,8.64,0.59,0.62,0.61
26.43,-8.40,-9.01,-8.41,-9.02,9.02,9.40,8.85,0.62,0.61,0.61
26.69,-8.39,-9.00,-8.40,-9.01,9.01,9.35,9.05,0.62,0.61,0.61
26.96,-8.36,-8.97,-8.40,-9.00,9.00,9.30,9.25,0.64,0.60,0.61
27.23,-8.33,-8.94,-8.40,-9.00,9.00,9.26,9.45,0.67,0.60,0.61
27.50,-8.32,-8.93,-8.41,-9.00,9.00,9.21,9.65,0.68,0.60,0.60
27.77,-8.33,-8.92,-8.40,-9.00,9.00,9.16,9.84,0.67,0.59,0.59
28.05,-8.36,-8.95,-8.39,-8.98,8.98,9.11,10.03,0.62,0.59,0.59
28.33,-8.41,-8.99,-8.38,-8.97,8.97,9.06,10.21,0.56,0.59,0.58
28.62,-8.47,-9.05,-8.37,-8.95,8.95,9.02,10.38,0.48,0.58,0.58
28.90,-8.53,-9.11,-8.36,-8.93,8.93,8.97,10.54,0.40,0.58,0.58
29.19,-8.51,-9.08,-8.35,-8.92,8.92,8.92,10.69,0.41,0.57,0.56
29.48,-8.42,-8.99,-8.34,-8.91,8.91,8.87,10.82,0.49,0.57,0.57
29.78,-8.32,-8.88,-8.34,-8.90,8.90,8.82,10.94,0.58,0.56,0.56
30.08,-8.24,-8.80,-8.33,-8.88,8.88,8.77,11.04,0.64,0.55,0.56
30.38,-8.15,-8.70,-8.31,-8.86,8.86,8.73,11.13,0.71,0.55,0.55
30.68,-8.10,-8.65,-8.29,-8.83,8.83,8.68,11.19,0.73,0.54,0.54
30.99,-8.14,-8.67,-8.25,-8.78,8.78,8.63,11.23,0.64,0.54,0.53
31.30,-8.18,-8.71,-8.20,-8.73,8.73,8.59,11.26,0.55,0.53,0.53
31.61,-8.24,-8.77,-8.15,-8.68,8.68,8.54,11.26,0.44,0.52,0.53
31.93,-8.27,-8.79,-8.10,-8.62,8.62,8.50,11.25,0.35,0.52,0.51
32.24,-8.23,-8.73,-8.05,-8.56,8.56,8.45,11.21,0.33,0.51,0.50
32.57,-8.13,-8.63,-8.01,-8.51,8.51,8.41,11.16,0.38,0.50,0.50
32.89,-8.02,-8.52,-7.97,-8.47,8.47,8.37,11.09,0.45,0.49,0.50
33.22,-7.92,-8.40,-7.94,-8.43,8.43,8.33,11.00,0.50,0.49,0.48
33.55,-7.82,-8.30,-7.91,-8.38,8.38,8.29,10.91,0.56,0.48,0.48
33.89,-7.75,-8.22,-7.87,-8.34,8.34,8.25,10.79,0.59,0.47,0.47
34.23,-7.71,-8.17,-7.84,-8.29,8.29,8.21,10.67,0.58,0.46,0.46
34.57,-7.71,-8.16,-7.80,-8.25,8.25,8.18,10.54,0.54,0.45,0.45
34.92,-7.71,-8.15,-7.76,-8.20,8.20,8.14,10.40,0.49,0.44,0.44
35.27,-7.71,-8.14,-7.73,-8.16,8.16,8.11,10.26,0.45,0.43,0.43
35.62,-7.75,-8.17,-7.71,-8.13,8.13,8.07,10.11,0.38,0.42,0.42
35.97,-7.75,-8.16,-7.70,-8.11,8.11,8.04,9.96,0.36,0.41,0.40
36.33,-7.75,-8.15,-7.69,-8.09,8.09,8.01,9.80,0.34,0.40,0.40
36.70,-7.75,-8.14,-7.69,-8.07,8.07,7.98,9.65,0.32,0.39,0.39
37.06,-7.75,-8.12,-7.68,-8.05,8.05,7.95,9.49,0.30,0.37,0.37
37.43,-7.72,-8.09,-7.68,-8.04,8.04,7.93,9.34,0.32,0.36,0.37
37.81,-7.69,-8.04,-7.67,-8.02,8.02,7.90,9.19,0.33,0.35,0.35
38.19,-7.64,-7.98,-7.66,-8.00,8.00,7.88,9.04,0.36,0.34,0.34
38.57,-7.60,-7.93,-7.65,-7.98,7.98,7.85,8.90,0.38,0.33,0.33
38.95,-7.58,-7.90,-7.65,-7.96,7.96,7.83,8.76,0.38,0.31,0.32
39.34,-7.58,-7.88,-7.64,-7.94,7.94,7.81,8.62,0.36,0.30,0.30
39.74,-7.58,-7.86,-7.64,-7.93,7.93,7.78,8.49,0.35,0.29,0.28
40.14,-7.60,-7.88,-7.63,-7.91,7.91,7.76,8.36,0.31,0.28,0.28
40.54,-7.62,-7.88,-7.63,-7.90,7.90,7.75,8.24,0.28,0.27,0.26
40.94,-7.67,-7.93,-7.63,-7.88,7.88,7.73,8.12,0.21,0.26,0.25
41.35,-7.67,-7.91,-7.62,-7.86,7.86,7.71,8.01,0.19,0.24,0.24
41.76,-7.67,-7.90,-7.62,-7.85,7.85,7.69,7.90,0.17,0.23,0.23
42.18,-7.65,-7.87,-7.61,-7.82,7.82,7.67,7.80,0.17,0.21,0.22
42.60,-7.62,-7.83,-7.60,-7.80,7.80,7.66,7.70,0.18,0.20,0.20
43.03,-7.62,-7.82,-7.59,-7.77,7.77,7.64,7.61,0.15,0.18,0.20
43.46,-7.58,-7.76,-7.57,-7.74,7.74,7.63,7.52,0.16,0.17,0.18
43.90,-7.54,-7.69,-7.55,-7.70,7.70,7.61,7.44,0.16,0.15,0.15
44.33,-7.51,-7.64,-7.53,-7.66,7.66,7.59,7.37,0.15,0.14,0.13
44.78,-7.48,-7.59,-7.50,-7.62,7.62,7.58,7.30,0.14,0.12,0.11
45.23,-7.45,-7.54,-7.48,-7.58,7.58,7.56,7.24,0.13,0.10,0.09
45.68,-7.41,-7.48,-7.45,-7.53,7.53,7.55,7.18,0.12,0.08,0.07
46.13,-7.41,-7.46,-7.44,-7.49,7.49,7.53,7.13,0.08,0.06,0.05
46.60,-7.41,-7.45,-7.42,-7.46,7.46,7.52,7.08,0.04,0.04,0.04
47.06,-7.41,-7.43,-7.40,-7.42,7.42,7.50,7.04,0.01,0.01,0.02
47.53,-7.39,-7.39,-7.39,-7.38,7.38,7.48,7.00,-0.01,-0.01,-0.00
48.01,-7.36,-7.35,-7.37,-7.34,7.34,7.46,6.97,-0.03,-0.03,-0.01
48.49,-7.36,-7.31,-7.35,-7.29,7.29,7.44,6.94,-0.07,-0.06,-0.05
48.97,-7.36,-7.28,-7.33,-7.25,7.25,7.42,6.91,-0.11,-0.08,-0.08
49.46,-7.35,-7.24,-7.31,-7.20,7.20,7.40,6.89,-0.15,-0.11,-0.11
49.96,-7.32,-7.17,-7.29,-7.16,7.16,7.38,6.87,-0.16,-0.13,-0.15
50.46,-7.32,-7.16,-7.27,-7.11,7.11,7.35,6.86,-0.21,-0.16,-0.16
50.96,-7.27,-7.08,-7.25,-7.07,7.07,7.33,6.85,-0.20,-0.19,-0.19
51.47,-7.22,-7.00,-7.24,-7.02,7.02,7.30,6.84,-0.20,-0.21,-0.22
51.99,-7.19,-6.94,-7.22,-6.98,6.98,7.27,6.84,-0.21,-0.24,-0.25
52.51,-7.15,-6.89,-7.21,-6.94,6.94,7.24,6.83,-0.21,-0.27,-0.26
53.03,-7.15,-6.86,-7.21,-6.91,6.91,7.20,6.83,-0.24,-0.30,-0.29
53.56,-7.15,-6.83,-7.21,-6.88,6.88,7.17,6.83,-0.27,-0.33,-0.32
54.10,-7.18,-6.83,-7.20,-6.85,6.85,7.13,6.83,-0.33,-0.35,-0.35
54.64,-7.19,-6.81,-7.20,-6.83,6.83,7.09,6.83,-0.37,-0.38,-0.38
55.18,-7.22,-6.81,-7.20,-6.80,6.80,7.05,6.83,-0.42,-0.40,-0.41
55.74,-7.23,-6.79,-7.20,-6.78,6.78,7.01,6.83,-0.46,-0.43,-0.44
56.29,-7.23,-6.77,-7.20,-6.75,6.75,6.96,6.83,-0.48,-0.46,-0.46
56.86,-7.24,-6.75,-7.20,-6.72,6.72,6.91,6.83,-0.52,-0.48,-0.49
57.42,-7.23,-6.71,-7.19,-6.68,6.68,6.86,6.82,-0.55,-0.51,-0.52
58.00,-7.23,-6.69,-7.18,-6.64,6.64,6.81,6.81,-0.59,-0.54,-0.54
58.58,-7.19,-6.62,-7.17,-6.60,6.60,6.75,6.80,-0.59,-0.57,-0.57
59.16,-7.16,-6.57,-7.14,-6.54,6.54,6.70,6.78,-0.62,-0.60,-0.59
59.76,-7.11,-6.49,-7.12,-6.49,6.49,6.64,6.76,-0.62,-0.63,-0.62
60.35,-7.08,-6.43,-7.09,-6.43,6.43,6.58,6.74,-0.65,-0.66,-0.65
60.96,-7.03,-6.35,-7.06,-6.37,6.37,6.51,6.70,-0.66,-0.69,-0.68
61.57,-7.00,-6.27,-7.03,-6.30,6.30,6.45,6.67,-0.70,-0.72,-0.73
62.18,-6.97,-6.21,-7.00,-6.24,6.24,6.38,6.63,-0.73,-0.76,-0.77
62.80,-6.95,-6.16,-6.97,-6.18,6.18,6.31,6.58,-0.77,-0.79,-0.79
63.43,-6.93,-6.10,-6.94,-6.12,6.12,6.24,6.53,-0.81,-0.83,-0.83
64.07,-6.93,-6.07,-6.92,-6.06,6.06,6.17,6.47,-0.87,-0.86,-0.87
64.71,-6.89,-5.99,-6.90,-6.01,6.01,6.10,6.40,-0.88,-0.90,-0.90
65.35,-6.89,-5.96,-6.89,-5.96,5.96,6.02,6.34,-0.93,-0.93,-0.93
66.01,-6.89,-5.93,-6.88,-5.91,5.91,5.95,6.26,-0.98,-0.97,-0.96
66.67,-6.84,-5.84,-6.87,-5.86,5.86,5.87,6.18,-0.98,-1.00,-1.00
67.33,-6.84,-5.81,-6.85,-5.82,5.82,5.79,6.10,-1.02,-1.04,-1.03
68.01,-6.84,-5.77,-6.84,-5.77,5.77,5.71,6.01,-1.07,-1.07,-1.07
68.69,-6.84,-5.73,-6.83,-5.72,5.72,5.63,5.92,-1.12,-1.11,-1.11
69.37,-6.80,-5.65,-6.81,-5.66,5.66,5.55,5.82,-1.14,-1.15,-1.15
70.07,-6.80,-5.62,-6.79,-5.61,5.61,5.47,5.73,-1.20,-1.18,-1.19
70.77,-6.78,-5.57,-6.76,-5.54,5.54,5.39,5.63,-1.24,-1.22,-1.22
71.48,-6.75,-5.49,-6.73,-5.47,5.47,5.31,5.53,-1.28,-1.26,-1.26
72.19,-6.72,-5.42,-6.70,-5.40,5.40,5.23,5.42,-1.32,-1.30,-1.30
72.91,-6.67,-5.33,-6.67,-5.33,5.33,5.14,5.32,-1.35,-1.34,-1.34
73.64,-6.64,-5.25,-6.63,-5.24,5.24,5.06,5.21,-1.40,-1.38,-1.39
74.38,-6.58,-5.16,-6.58,-5.16,5.16,4.98,5.11,-1.42,-1.42,-1.42
75.12,-6.55,-5.08,-6.54,-5.07,5.07,4.90,5.00,-1.48,-1.46,-1.47
75.87,-6.49,-4.99,-6.49,-4.98,4.98,4.82,4.90,-1.51,-1.50,-1.50
76.63,-6.43,-4.89,-6.43,-4.89,4.89,4.73,4.80,-1.54,-1.54,-1.54
77.40,-6.38,-4.80,-6.38,-4.80,4.80,4.65,4.70,-1.58,-1.58,-1.58
78.17,-6.31,-4.68,-6.33,-4.71,4.71,4.57,4.60,-1.60,-1.62,-1.63
78.95,-6.28,-4.62,-6.28,-4.61,4.61,4.49,4.50,-1.67,-1.67,-1.66
79.74,-6.22,-4.52,-6.23,-4.52,4.52,4.41,4.40,-1.70,-1.71,-1.70
80.54,-6.17,-4.42,-6.18,-4.43,4.43,4.33,4.30,-1.74,-1.75,-1.75
81.35,-6.14,-4.35,-6.14,-4.35,4.35,4.25,4.21,-1.79,-1.79,-1.79
82.16,-6.11,-4.27,-6.10,-4.27,4.27,4.17,4.12,-1.85,-1.84,-1.84
82.98,-6.06,-4.19,-6.07,-4.19,4.19,4.10,4.03,-1.87,-1.88,-1.87
83.81,-6.03,-4.10,-6.03,-4.11,4.11,4.02,3.95,-1.92,-1.92,-1.93
84.65,-6.00,-4.03,-6.01,-4.04,4.04,3.94,3.86,-1.96,-1.97,-1.98
85.50,-5.98,-3.97,-5.98,-3.97,3.97,3.87,3.78,-2.02,-2.02,-2.01
86.35,-5.96,-3.90,-5.96,-3.90,3.90,3.79,3.70,-2.06,-2.06,-2.06
87.22,-5.93,-3.82,-5.95,-3.84,3.84,3.72,3.62,-2.09,-2.11,-2.11
88.09,-5.93,-3.77,-5.94,-3.78,3.78,3.65,3.55,-2.15,-2.16,-2.16
88.97,-5.93,-3.73,-5.93,-3.72,3.72,3.58,3.48,-2.21,-2.21,-2.20
89.86,-5.93,-3.68,-5.93,-3.67,3.67,3.51,3.41,-2.26,-2.26,-2.26
90.76,-5.93,-3.61,-5.93,-3.62,3.62,3.44,3.35,-2.31,-2.31,-2.32
91.66,-5.93,-3.57,-5.93,-3.57,3.57,3.37,3.28,-2.37,-2.37,-2.36
92.58,-5.93,-3.51,-5.94,-3.52,3.52,3.30,3.22,-2.41,-2.42,-2.43
93.51,-5.93,-3.46,-5.94,-3.47,3.47,3.23,3.16,-2.46,-2.47,-2.47
94.44,-5.96,-3.44,-5.95,-3.42,3.42,3.17,3.11,-2.54,-2.53,-2.52
95.39,-5.98,-3.40,-5.96,-3.37,3.37,3.10,3.05,-2.61,-2.59,-2.58
96.34,-5.98,-3.34,-5.97,-3.32,3.32,3.04,3.00,-2.66,-2.64,-2.65
97.30,-5.98,-3.28,-5.97,-3.28,3.28,2.98,2.95,-2.71,-2.70,-2.70
98.28,-5.98,-3.22,-5.98,-3.23,3.23,2.91,2.90,-2.75,-2.76,-2.76
99.26,-5.98,-3.17,-5.99,-3.18,3.18,2.85,2.86,-2.80,-2.81,-2.81
100.25,-5.98,-3.11,-6.00,-3.13,3.13,2.79,2.81,-2.85,-2.87,-2.87
101.25,-6.01,-3.08,-6.01,-3.08,3.08,2.73,2.77,-2.93,-2.93,-2.93
102.27,-6.02,-3.03,-6.02,-3.04,3.04,2.68,2.73,-2.98,-2.99,-2.99
103.29,-6.02,-2.97,-6.03,-2.99,2.99,2.62,2.69,-3.03,-3.04,-3.05
104.32,-6.06,-2.96,-6.04,-2.94,2.94,2.56,2.65,-3.12,-3.10,-3.10
105.37,-6.06,-2.90,-6.05,-2.89,2.89,2.51,2.62,-3.17,-3.16,-3.16
106.42,-6.06,-2.84,-6.06,-2.84,2.84,2.45,2.58,-3.22,-3.22,-3.22
107.48,-6.06,-2.79,-6.07,-2.79,2.79,2.40,2.55,-3.27,-3.28,-3.28
108.56,-6.09,-2.75,-6.09,-2.74,2.74,2.35,2.51,-3.35,-3.34,-3.34
109.64,-6.11,-2.71,-6.10,-2.69,2.69,2.29,2.48,-3.42,-3.40,-3.40
110.74,-6.11,-2.65,-6.11,-2.64,2.64,2.24,2.45,-3.47,-3.46,-3.46
111.85,-6.11,-2.60,-6.11,-2.59,2.59,2.19,2.42,-3.52,-3.53,-3.52
112.97,-6.11,-2.52,-6.12,-2.53,2.53,2.14,2.39,-3.58,-3.59,-3.59
114.10,-6.11,-2.46,-6.13,-2.48,2.48,2.10,2.36,-3.64,-3.65,-3.65
115.24,-6.14,-2.43,-6.13,-2.42,2.42,2.05,2.32,-3.72,-3.71,-3.71
116.39,-6.15,-2.37,-6.14,-2.36,2.36,2.00,2.29,-3.79,-3.78,-3.78
117.55,-6.15,-2.30,-6.14,-2.30,2.30,1.95,2.26,-3.85,-3.84,-3.85
118.73,-6.15,-2.24,-6.15,-2.25,2.25,1.91,2.23,-3.90,-3.90,-3.91
119.92,-6.15,-2.19,-6.15,-2.19,2.19,1.86,2.19,-3.96,-3.97,-3.97
121.12,-6.15,-2.12,-6.16,-2.13,2.13,1.82,2.16,-4.02,-4.03,-4.03
122.33,-6.15,-2.06,-6.16,-2.07,2.07,1.78,2.13,-4.08,-4.09,-4.09
123.55,-6.16,-2.02,-6.17,-2.01,2.01,1.73,2.09,-4.15,-4.15,-4.15
124.79,-6.17,-1.96,-6.17,-1.96,1.96,1.69,2.06,-4.21,-4.21,-4.21
126.03,-6.17,-1.90,-6.18,-1.90,1.90,1.65,2.02,-4.27,-4.27,-4.27
127.29,-6.18,-1.85,-6.18,-1.84,1.84,1.61,1.98,-4.34,-4.34,-4.33
128.57,-6.19,-1.79,-6.18,-1.79,1.79,1.57,1.94,-4.41,-4.39,-4.40
129.85,-6.19,-1.73,-6.18,-1.73,1.73,1.53,1.90,-4.46,-4.45,-4.46
131.15,-6.19,-1.67,-6.19,-1.67,1.67,1.49,1.86,-4.52,-4.51,-4.52
132.46,-6.19,-1.62,-6.19,-1.62,1.62,1.45,1.82,-4.57,-4.57,-4.57
133.79,-6.19,-1.57,-6.19,-1.56,1.56,1.41,1.78,-4.63,-4.63,-4.62
135.12,-6.19,-1.50,-6.19,-1.51,1.51,1.37,1.73,-4.68,-4.68,-4.69
136.48,-6.19,-1.46,-6.19,-1.46,1.46,1.33,1.69,-4.73,-4.73,-4.73
137.84,-6.19,-1.41,-6.19,-1.41,1.41,1.30,1.64,-4.79,-4.79,-4.79
139.22,-6.19,-1.34,-6.19,-1.35,1.35,1.26,1.60,-4.84,-4.84,-4.85
140.61,-6.19,-1.29,-6.19,-1.30,1.30,1.22,1.55,-4.89,-4.89,-4.90
142.02,-6.19,-1.26,-6.19,-1.25,1.25,1.19,1.50,-4.94,-4.94,-4.93
143.44,-6.19,-1.21,-6.19,-1.21,1.21,1.15,1.46,-4.98,-4.98,-4.98
144.87,-6.19,-1.16,-6.19,-1.16,1.16,1.11,1.41,-5.03,-5.03,-5.03
146.32,-6.19,-1.11,-6.19,-1.11,1.11,1.08,1.36,-5.08,-5.08,-5.08
147.78,-6.19,-1.07,-6.19,-1.07,1.07,1.04,1.31,-5.13,-5.13,-5.12
149.26,-6.19,-1.03,-6.19,-1.02,1.02,1.01,1.26,-5.17,-5.17,-5.16
150.75,-6.19,-0.97,-6.19,-0.97,0.97,0.97,1.22,-5.22,-5.22,-5.22
152.26,-6.19,-0.93,-6.19,-0.93,0.93,0.93,1.17,-5.27,-5.27,-5.26
153.78,-6.19,-0.88,-6.19,-0.88,0.88,0.90,1.12,-5.31,-5.31,-5.31
155.32,-6.19,-0.83,-6.19,-0.83,0.83,0.86,1.07,-5.36,-5.36,-5.36
156.88,-6.19,-0.79,-6.19,-0.79,0.79,0.83,1.02,-5.40,-5.40,-5.40
158.44,-6.19,-0.74,-6.19,-0.74,0.74,0.79,0.97,-5.45,-5.45,-5.45
160.03,-6.19,-0.69,-6.19,-0.69,0.69,0.76,0.93,-5.50,-5.50,-5.50
161.63,-6.19,-0.64,-6.19,-0.65,0.65,0.72,0.88,-5.54,-5.54,-5.55
163.24,-6.19,-0.59,-6.19,-0.60,0.60,0.68,0.83,-5.59,-5.59,-5.60
164.88,-6.19,-0.56,-6.19,-0.56,0.56,0.65,0.78,-5.64,-5.64,-5.63
166.53,-6.19,-0.51,-6.19,-0.51,0.51,0.61,0.74,-5.68,-5.68,-5.68
168.19,-6.19,-0.47,-6.19,-0.47,0.47,0.57,0.69,-5.72,-5.72,-5.72
169.87,-6.19,-0.42,-6.19,-0.42,0.42,0.53,0.64,-5.77,-5.77,-5.77
171.57,-6.19,-0.38,-6.19,-0.38,0.38,0.49,0.60,-5.81,-5.81,-5.81
173.29,-6.19,-0.34,-6.19,-0.33,0.33,0.45,0.55,-5.86,-5.86,-5.85
175.02,-6.19,-0.30,-6.19,-0.29,0.29,0.41,0.51,-5.90,-5.90,-5.89
176.77,-6.19,-0.25,-6.19,-0.25,0.25,0.37,0.46,-5.94,-5.95,-5.94
178.54,-6.19,-0.20,-6.19,-0.21,0.21,0.33,0.41,-5.99,-5.99,-5.99
180.32,-6.19,-0.16,-6.19,-0.16,0.16,0.29,0.37,-6.03,-6.03,-6.03
182.13,-6.19,-0.12,-6.19,-0.12,0.12,0.24,0.32,-6.07,-6.07,-6.07
183.95,-6.19,-0.07,-6.19,-0.07,0.07,0.20,0.28,-6.12,-6.11,-6.12
185.79,-6.19,-0.04,-6.19,-0.03,0.03,0.15,0.24,-6.16,-6.16,-6.15
187.65,-6.19,0.01,-6.18,0.01,-0.01,0.11,0.19,-6.20,-6.19,-6.20
189.52,-6.19,0.04,-6.18,0.05,-0.05,0.06,0.15,-6.24,-6.23,-6.23
191.42,-6.19,0.08,-6.18,0.09,-0.09,0.02,0.11,-6.28,-6.27,-6.27
193.33,-6.17,0.13,-6.17,0.13,-0.13,-0.03,0.06,-6.30,-6.30,-6.30
195.27,-6.15,0.18,-6.17,0.17,-0.17,-0.08,0.02,-6.32,-6.34,-6.33
197.22,-6.15,0.21,-6.17,0.20,-0.20,-0.13,-0.02,-6.35,-6.37,-6.36
199.19,-6.15,0.25,-6.16,0.23,-0.23,-0.18,-0.06,-6.39,-6.39,-6.41
201.18,-6.15,0.27,-6.15,0.27,-0.27,-0.22,-0.11,-6.42,-6.42,-6.43
203.19,-6.15,0.29,-6.15,0.30,-0.30,-0.27,-0.15,-6.45,-6.45,-6.45
205.23,-6.15,0.32,-6.15,0.32,-0.32,-0.32,-0.19,-6.48,-6.47,-6.47
207.28,-6.15,0.33,-6.14,0.35,-0.35,-0.36,-0.23,-6.50,-6.49,-6.48
209.35,-6.15,0.36,-6.13,0.38,-0.38,-0.40,-0.27,-6.53,-6.51,-6.51
211.44,-6.13,0.41,-6.13,0.40,-0.40,-0.44,-0.30,-6.53,-6.53,-6.54
213.56,-6.11,0.43,-6.12,0.42,-0.42,-0.48,-0.34,-6.53,-6.54,-6.54
215.69,-6.11,0.44,-6.12,0.44,-0.44,-0.51,-0.38,-6.55,-6.56,-6.55
217.85,-6.11,0.46,-6.11,0.46,-0.46,-0.54,-0.41,-6.57,-6.57,-6.57
220.03,-6.11,0.47,-6.10,0.47,-0.47,-0.56,-0.45,-6.58,-6.58,-6.58
222.23,-6.11,0.48,-6.10,0.49,-0.49,-0.58,-0.48,-6.60,-6.58,-6.60
224.45,-6.09,0.50,-6.09,0.50,-0.50,-0.59,-0.51,-6.59,-6.59,-6.59
226.70,-6.06,0.53,-6.08,0.51,-0.51,-0.60,-0.54,-6.58,-6.59,-6.59
228.96,-6.06,0.54,-6.07,0.52,-0.52,-0.61,-0.57,-6.59,-6.60,-6.60
231.25,-6.06,0.53,-6.07,0.53,-0.53,-0.61,-0.60,-6.59,-6.60,-6.59
233.57,-6.06,0.53,-6.06,0.54,-0.54,-0.61,-0.62,-6.60,-6.60,-6.59
235.90,-6.06,0.53,-6.06,0.54,-0.54,-0.60,-0.65,-6.60,-6.59,-6.59
238.26,-6.06,0.53,-6.05,0.54,-0.54,-0.59,-0.67,-6.60,-6.59,-6.59
240.64,-6.05,0.53,-6.04,0.54,-0.54,-0.58,-0.68,-6.59,-6.58,-6.59
243.05,-6.02,0.55,-6.03,0.54,-0.54,-0.56,-0.70,-6.56,-6.58,-6.58
245.48,-6.02,0.55,-6.03,0.54,-0.54,-0.54,-0.72,-6.56,-6.57,-6.57
247.93,-6.02,0.53,-6.02,0.54,-0.54,-0.53,-0.73,-6.56,-6.56,-6.56
250.41,-6.02,0.53,-6.02,0.53,-0.53,-0.51,-0.74,-6.55,-6.55,-6.56
252.92,-6.02,0.51,-6.01,0.52,-0.52,-0.49,-0.75,-6.54,-6.53,-6.53
255.45,-6.02,0.49,-6.01,0.51,-0.51,-0.47,-0.75,-6.53,-6.52,-6.51
258.00,-5.99,0.51,-6.00,0.50,-0.50,-0.45,-0.75,-6.49,-6.50,-6.50
260.58,-5.98,0.51,-6.00,0.49,-0.49,-0.43,-0.76,-6.47,-6.49,-6.49
263.19,-5.98,0.49,-5.99,0.48,-0.48,-0.42,-0.76,-6.46,-6.47,-6.47
265.82,-5.98,0.47,-5.99,0.46,-0.46,-0.40,-0.75,-6.44,-6.45,-6.46
268.48,-5.98,0.45,-5.99,0.45,-0.45,-0.39,-0.75,-6.43,-6.43,-6.43
271.16,-5.98,0.43,-5.98,0.43,-0.43,-0.37,-0.74,-6.41,-6.42,-6.41
273.87,-5.98,0.42,-5.98,0.42,-0.42,-0.36,-0.73,-6.40,-6.40,-6.40
276.61,-5.98,0.39,-5.97,0.41,-0.41,-0.35,-0.72,-6.39,-6.38,-6.37
279.38,-5.98,0.38,-5.96,0.40,-0.40,-0.33,-0.71,-6.38,-6.36,-6.36
282.17,-5.98,0.36,-5.96,0.38,-0.38,-0.32,-0.70,-6.36,-6.34,-6.35
284.99,-5.95,0.37,-5.95,0.37,-0.37,-0.32,-0.68,-6.32,-6.32,-6.32
287.84,-5.93,0.38,-5.94,0.36,-0.36,-0.31,-0.67,-6.29,-6.30,-6.31
290.72,-5.93,0.35,-5.93,0.35,-0.35,-0.30,-0.65,-6.28,-6.28,-6.28
293.63,-5.93,0.34,-5.92,0.34,-0.34,-0.29,-0.64,-6.27,-6.26,-6.27
296.57,-5.90,0.34,-5.91,0.33,-0.33,-0.29,-0.62,-6.23,-6.24,-6.24
299.53,-5.89,0.34,-5.89,0.33,-0.33,-0.29,-0.60,-6.22,-6.22,-6.23
302.53,-5.89,0.32,-5.88,0.32,-0.32,-0.28,-0.58,-6.21,-6.20,-6.21
305.55,-5.85,0.33,-5.86,0.31,-0.31,-0.28,-0.56,-6.17,-6.18,-6.18
308.61,-5.85,0.31,-5.85,0.31,-0.31,-0.28,-0.54,-6.16,-6.16,-6.16
311.69,-5.85,0.28,-5.83,0.30,-0.30,-0.28,-0.52,-6.15,-6.13,-6.13
314.81,-5.80,0.30,-5.81,0.30,-0.30,-0.28,-0.50,-6.10,-6.11,-6.10
317.96,-5.80,0.28,-5.80,0.29,-0.29,-0.28,-0.48,-6.09,-6.09,-6.08
321.14,-5.77,0.30,-5.78,0.29,-0.29,-0.28,-0.46,-6.06,-6.07,-6.07
324.35,-5.76,0.29,-5.76,0.28,-0.28,-0.28,-0.44,-6.04,-6.05,-6.05
327.59,-5.76,0.26,-5.75,0.28,-0.28,-0.28,-0.41,-6.04,-6.03,-6.02
330.87,-5.72,0.29,-5.73,0.28,-0.28,-0.29,-0.39,-6.00,-6.01,-6.01
334.18,-5.72,0.27,-5.71,0.27,-0.27,-0.29,-0.37,-5.99,-5.99,-5.99
337.52,-5.69,0.28,-5.70,0.27,-0.27,-0.29,-0.35,-5.96,-5.97,-5.97
340.90,-5.67,0.27,-5.68,0.27,-0.27,-0.30,-0.33,-5.94,-5.95,-5.95
344.30,-5.67,0.26,-5.66,0.27,-0.27,-0.30,-0.31,-5.94,-5.93,-5.93
347.75,-5.63,0.28,-5.64,0.27,-0.27,-0.31,-0.29,-5.90,-5.91,-5.91
351.23,-5.63,0.26,-5.63,0.27,-0.27,-0.31,-0.27,-5.90,-5.89,-5.89
354.74,-5.60,0.28,-5.61,0.27,-0.27,-0.32,-0.24,-5.87,-5.88,-5.88
358.28,-5.59,0.27,-5.59,0.27,-0.27,-0.32,-0.22,-5.86,-5.86,-5.86
361.87,-5.57,0.27,-5.57,0.27,-0.27,-0.33,-0.20,-5.85,-5.84,-5.84
365.49,-5.54,0.28,-5.55,0.28,-0.28,-0.34,-0.18,-5.82,-5.83,-5.82
369.14,-5.54,0.27,-5.53,0.28,-0.28,-0.34,-0.16,-5.83,-5.81,-5.82
372.83,-5.50,0.30,-5.50,0.29,-0.29,-0.35,-0.14,-5.79,-5.80,-5.80
376.56,-5.48,0.31,-5.48,0.30,-0.30,-0.36,-0.12,-5.78,-5.78,-5.79
380.33,-5.46,0.30,-5.46,0.31,-0.31,-0.37,-0.11,-5.77,-5.77,-5.76
384.13,-5.43,0.32,-5.43,0.33,-0.33,-0.38,-0.09,-5.76,-5.76,-5.75
387.97,-5.41,0.33,-5.41,0.34,-0.34,-0.38,-0.07,-5.75,-5.74,-5.74
391.85,-5.37,0.37,-5.38,0.35,-0.35,-0.39,-0.05,-5.72,-5.73,-5.74
395.77,-5.35,0.37,-5.35,0.37,-0.37,-0.40,-0.03,-5.72,-5.72,-5.72
399.73,-5.33,0.38,-5.32,0.39,-0.39,-0.41,-0.02,-5.72,-5.71,-5.71
403.72,-5.29,0.41,-5.29,0.40,-0.40,-0.42,-0.00,-5.70,-5.70,-5.70
407.76,-5.26,0.43,-5.26,0.42,-0.42,-0.43,0.02,-5.69,-5.69,-5.69
411.84,-5.23,0.44,-5.23,0.45,-0.45,-0.44,0.03,-5.68,-5.68,-5.67
415.96,-5.20,0.46,-5.20,0.47,-0.47,-0.45,0.04,-5.67,-5.67,-5.67
420.12,-5.17,0.49,-5.17,0.49,-0.49,-0.46,0.06,-5.66,-5.66,-5.66
424.32,-5.14,0.51,-5.14,0.51,-0.51,-0.47,0.07,-5.65,-5.65,-5.65
428.56,-5.11,0.53,-5.10,0.53,-0.53,-0.48,0.08,-5.64,-5.64,-5.64
432.85,-5.07,0.56,-5.07,0.56,-0.56,-0.49,0.09,-5.63,-5.63,-5.63
437.18,-5.03,0.59,-5.04,0.58,-0.58,-0.50,0.09,-5.61,-5.62,-5.62
441.55,-5.00,0.60,-5.00,0.60,-0.60,-0.51,0.10,-5.61,-5.60,-5.60
445.96,-4.97,0.62,-4.96,0.63,-0.63,-0.52,0.10,-5.60,-5.59,-5.59
450.42,-4.92,0.66,-4.92,0.65,-0.65,-0.53,0.10,-5.58,-5.58,-5.58
454.93,-4.89,0.67,-4.89,0.68,-0.68,-0.54,0.10,-5.57,-5.57,-5.57
