frequency,raw,error,smoothed,error_smoothed,equalization,parametric_eq,fixed_band_eq,equalized_raw,equalized_smoothed,target
20.00,-1.06,-3.33,-1.06,-3.35,3.35,2.58,0.08,2.29,2.29,2.26
20.20,-0.99,-3.26,-1.00,-3.28,3.28,2.70,0.09,2.29,2.28,2.26
20.40,-0.94,-3.21,-0.94,-3.21,3.21,2.80,0.09,2.26,2.27,2.26
20.61,-0.87,-3.14,-0.87,-3.13,3.13,2.90,0.10,2.26,2.26,2.26
20.81,-0.80,-3.07,-0.80,-3.06,3.06,2.98,0.11,2.25,2.25,2.26
21.02,-0.74,-3.01,-0.74,-2.98,2.98,3.04,0.11,2.23,2.24,2.26
21.23,-0.66,-2.91,-0.67,-2.90,2.90,3.09,0.12,2.23,2.23,2.24
21.44,-0.59,-2.83,-0.60,-2.82,2.82,3.11,0.13,2.22,2.22,2.23
21.66,-0.53,-2.75,-0.53,-2.73,2.73,3.11,0.13,2.20,2.20,2.21
21.87,-0.46,-2.66,-0.46,-2.65,2.65,3.09,0.14,2.19,2.19,2.19
22.09,-0.38,-2.57,-0.39,-2.56,2.56,3.05,0.15,2.18,2.17,2.18
22.31,-0.31,-2.47,-0.32,-2.47,2.47,2.99,0.15,2.16,2.15,2.15
22.54,-0.24,-2.38,-0.25,-2.38,2.38,2.90,0.16,2.13,2.13,2.13
22.76,-0.16,-2.28,-0.17,-2.28,2.28,2.81,0.17,2.12,2.11,2.11
22.99,-0.09,-2.18,-0.10,-2.19,2.19,2.69,0.18,2.09,2.09,2.08
23.22,-0.03,-2.09,-0.03,-2.09,2.09,2.57,0.19,2.06,2.07,2.05
23.45,0.05,-1.98,0.05,-1.99,1.99,2.44,0.20,2.04,2.04,2.02
23.69,0.12,-1.90,0.12,-1.90,1.90,2.30,0.20,2.01,2.02,2.01
23.92,0.20,-1.80,0.20,-1.80,1.80,2.17,0.21,2.00,2.00,1.99
24.16,0.28,-1.71,0.28,-1.70,1.70,2.03,0.22,1.98,1.98,1.98
24.40,0.36,-1.61,0.36,-1.60,1.60,1.89,0.23,1.96,1.96,1.96
24.65,0.44,-1.51,0.44,-1.50,1.50,1.75,0.24,1.94,1.94,1.94
24.89,0.52,-1.41,0.52,-1.40,1.40,1.62,0.25,1.92,1.93,1.92
25.14,0.61,-1.31,0.61,-1.30,1.30,1.49,0.26,1.91,1.91,1.91
25.39,0.69,-1.21,0.69,-1.20,1.20,1.36,0.26,1.89,1.89,1.89
25.65,0.78,-1.11,0.77,-1.10,1.10,1.24,0.27,1.88,1.88,1.88
25.91,0.86,-1.00,0.86,-1.00,1.00,1.12,0.28,1.86,1.86,1.86
26.16,0.95,-0.90,0.94,-0.90,0.90,1.01,0.28,1.85,1.85,1.84
26.43,1.03,-0.81,1.03,-0.80,0.80,0.91,0.29,1.83,1.83,1.83
26.69,1.12,-0.69,1.11,-0.71,0.71,0.80,0.29,1.82,1.81,1.80
26.96,1.20,-0.60,1.19,-0.61,0.61,0.71,0.30,1.80,1.80,1.79
27.23,1.28,-0.51,1.27,-0.51,0.51,0.61,0.30,1.79,1.78,1.78
27.50,1.35,-0.43,1.36,-0.41,0.41,0.52,0.30,1.76,1.77,1.77
27.77,1.44,-0.32,1.44,-0.32,0.32,0.44,0.30,1.76,1.76,1.75
28.05,1.52,-0.23,1.52,-0.22,0.22,0.36,0.30,1.74,1.74,1.74
28.33,1.59,-0.14,1.60,-0.13,0.13,0.28,0.29,1.72,1.73,1.72
28.62,1.68,-0.04,1.68,-0.04,0.04,0.21,0.29,1.71,1.71,1.71
28.90,1.75,0.05,1.75,0.05,-0.05,0.13,0.28,1.70,1.70,1.69
29.19,1.82,0.14,1.83,0.14,-0.14,0.07,0.27,1.68,1.69,1.67
29.48,1.91,0.23,1.90,0.23,-0.23,-0.00,0.26,1.68,1.67,1.67
29.78,1.98,0.31,1.97,0.31,-0.31,-0.07,0.24,1.66,1.66,1.66
30.08,2.06,0.40,2.04,0.40,-0.40,-0.13,0.23,1.66,1.65,1.65
30.38,2.12,0.48,2.11,0.48,-0.48,-0.19,0.21,1.63,1.63,1.63
30.68,2.19,0.56,2.18,0.56,-0.56,-0.25,0.18,1.62,1.62,1.62
30.99,2.26,0.66,2.24,0.64,-0.64,-0.30,0.16,1.61,1.60,1.60
31.30,2.31,0.72,2.31,0.72,-0.72,-0.36,0.13,1.58,1.58,1.58
31.61,2.37,0.79,2.37,0.80,-0.80,-0.41,0.10,1.57,1.57,1.57
31.93,2.42,0.86,2.42,0.87,-0.87,-0.46,0.07,1.54,1.55,1.55
32.24,2.47,0.94,2.48,0.95,-0.95,-0.51,0.03,1.52,1.53,1.52
32.57,2.53,1.02,2.53,1.02,-1.02,-0.57,-0.01,1.50,1.51,1.50
32.89,2.58,1.08,2.58,1.09,-1.09,-0.61,-0.05,1.48,1.49,1.49
33.22,2.64,1.17,2.63,1.16,-1.16,-0.66,-0.10,1.48,1.47,1.46
33.55,2.68,1.22,2.68,1.23,-1.23,-0.71,-0.15,1.45,1.45,1.45
33.89,2.73,1.30,2.72,1.29,-1.29,-0.76,-0.20,1.44,1.43,1.42
34.23,2.78,1.37,2.76,1.35,-1.35,-0.81,-0.25,1.42,1.41,1.40
34.57,2.82,1.43,2.80,1.41,-1.41,-0.85,-0.31,1.40,1.39,1.38
34.92,2.85,1.48,2.84,1.47,-1.47,-0.90,-0.36,1.37,1.37,1.36
35.27,2.89,1.54,2.88,1.53,-1.53,-0.94,-0.42,1.35,1.35,1.34
35.62,2.92,1.59,2.92,1.59,-1.59,-0.99,-0.49,1.32,1.33,1.32
35.97,2.95,1.64,2.96,1.65,-1.65,-1.04,-0.55,1.29,1.30,1.30
36.33,2.99,1.70,3.00,1.71,-1.71,-1.08,-0.62,1.27,1.28,1.28
36.70,3.02,1.75,3.04,1.78,-1.78,-1.13,-0.69,1.24,1.26,1.26
37.06,3.07,1.82,3.08,1.84,-1.84,-1.17,-0.76,1.23,1.24,1.24
37.43,3.12,1.89,3.13,1.91,-1.91,-1.22,-0.83,1.21,1.22,1.22
37.81,3.17,1.96,3.17,1.97,-1.97,-1.26,-0.91,1.19,1.20,1.20
38.19,3.23,2.05,3.22,2.04,-2.04,-1.31,-0.98,1.18,1.18,1.17
38.57,3.28,2.11,3.27,2.12,-2.12,-1.36,-1.06,1.16,1.16,1.16
38.95,3.33,2.19,3.33,2.19,-2.19,-1.40,-1.14,1.14,1.14,1.13
39.34,3.39,2.27,3.38,2.26,-2.26,-1.45,-1.22,1.12,1.12,1.11
39.74,3.45,2.35,3.44,2.34,-2.34,-1.50,-1.30,1.11,1.10,1.09
40.14,3.50,2.41,3.50,2.42,-2.42,-1.54,-1.39,1.08,1.08,1.08
40.54,3.55,2.48,3.56,2.49,-2.49,-1.59,-1.48,1.05,1.06,1.06
40.94,3.62,2.57,3.61,2.57,-2.57,-1.64,-1.56,1.05,1.05,1.04
41.35,3.67,2.65,3.67,2.64,-2.64,-1.69,-1.65,1.02,1.03,1.01
41.76,3.73,2.71,3.73,2.72,-2.72,-1.74,-1.74,1.01,1.01,1.01
42.18,3.78,2.78,3.78,2.79,-2.79,-1.79,-1.84,0.99,0.99,0.99
42.60,3.84,2.86,3.83,2.86,-2.86,-1.84,-1.93,0.98,0.97,0.97
43.03,3.89,2.92,3.88,2.93,-2.93,-1.89,-2.03,0.95,0.95,0.96
43.46,3.94,3.00,3.93,3.00,-3.00,-1.94,-2.13,0.94,0.93,0.93
43.90,4.00,3.08,3.98,3.07,-3.07,-1.99,-2.22,0.93,0.91,0.91
44.33,4.04,3.14,4.03,3.13,-3.13,-2.04,-2.33,0.91,0.90,0.89
44.78,4.07,3.19,4.07,3.19,-3.19,-2.10,-2.43,0.87,0.88,0.87
45.23,4.12,3.27,4.11,3.25,-3.25,-2.15,-2.53,0.86,0.86,0.84
45.68,4.15,3.32,4.15,3.31,-3.31,-2.21,-2.64,0.84,0.84,0.82
46.13,4.20,3.38,4.19,3.37,-3.37,-2.26,-2.75,0.83,0.82,0.81
46.60,4.23,3.42,4.23,3.43,-3.43,-2.32,-2.86,0.80,0.80,0.80
47.06,4.27,3.48,4.27,3.49,-3.49,-2.38,-2.97,0.78,0.78,0.78
47.53,4.30,3.53,4.30,3.55,-3.55,-2.44,-3.08,0.75,0.76,0.76
48.01,4.34,3.58,4.34,3.60,-3.60,-2.49,-3.19,0.73,0.74,0.75
48.49,4.37,3.64,4.38,3.66,-3.66,-2.55,-3.31,0.70,0.72,0.72
48.97,4.41,3.71,4.42,3.72,-3.72,-2.62,-3.43,0.68,0.69,0.69
49.46,4.45,3.78,4.46,3.78,-3.78,-2.68,-3.54,0.66,0.67,0.66
49.96,4.49,3.85,4.50,3.85,-3.85,-2.74,-3.66,0.64,0.65,0.63
50.46,4.54,3.91,4.54,3.91,-3.91,-2.80,-3.78,0.63,0.63,0.62
50.96,4.58,3.97,4.58,3.97,-3.97,-2.87,-3.90,0.61,0.60,0.60
51.47,4.62,4.04,4.61,4.03,-4.03,-2.93,-4.02,0.58,0.58,0.57
51.99,4.66,4.10,4.65,4.10,-4.10,-3.00,-4.14,0.56,0.56,0.55
52.51,4.69,4.15,4.69,4.16,-4.16,-3.07,-4.26,0.53,0.53,0.53
53.03,4.73,4.21,4.72,4.22,-4.22,-3.14,-4.38,0.51,0.51,0.51
53.56,4.77,4.28,4.76,4.27,-4.27,-3.21,-4.50,0.49,0.48,0.48
54.10,4.81,4.34,4.79,4.33,-4.33,-3.28,-4.61,0.48,0.46,0.46
54.64,4.82,4.38,4.82,4.38,-4.38,-3.35,-4.72,0.44,0.44,0.43
55.18,4.85,4.43,4.84,4.43,-4.43,-3.42,-4.83,0.42,0.41,0.41
55.74,4.87,4.48,4.87,4.48,-4.48,-3.50,-4.94,0.39,0.39,0.38
56.29,4.89,4.52,4.89,4.52,-4.52,-3.57,-5.05,0.36,0.37,0.36
56.86,4.91,4.57,4.91,4.57,-4.57,-3.64,-5.15,0.34,0.34,0.33
57.42,4.93,4.61,4.93,4.62,-4.62,-3.72,-5.24,0.31,0.32,0.31
58.00,4.95,4.65,4.95,4.66,-4.66,-3.80,-5.33,0.29,0.29,0.29
58.58,4.97,4.70,4.97,4.71,-4.71,-3.88,-5.41,0.26,0.27,0.26
59.16,5.00,4.75,4.99,4.75,-4.75,-3.95,-5.49,0.25,0.24,0.24
59.76,5.01,4.78,5.01,4.79,-4.79,-4.03,-5.56,0.21,0.21,0.22
60.35,5.03,4.83,5.02,4.84,-4.84,-4.11,-5.62,0.19,0.19,0.19
60.96,5.04,4.86,5.04,4.88,-4.88,-4.19,-5.68,0.16,0.16,0.17
61.57,5.06,4.92,5.06,4.92,-4.92,-4.28,-5.73,0.13,0.13,0.13
62.18,5.08,4.97,5.07,4.97,-4.97,-4.36,-5.77,0.11,0.11,0.10
62.80,5.09,5.01,5.09,5.01,-5.01,-4.44,-5.80,0.08,0.08,0.07
63.43,5.10,5.05,5.10,5.05,-5.05,-4.52,-5.83,0.05,0.05,0.04
64.07,5.11,5.09,5.12,5.09,-5.09,-4.60,-5.84,0.02,0.03,0.01
64.71,5.13,5.13,5.13,5.13,-5.13,-4.69,-5.85,0.00,0.00,-0.01
65.35,5.14,5.16,5.14,5.16,-5.16,-4.77,-5.85,-0.02,-0.02,-0.03
66.01,5.14,5.18,5.15,5.19,-5.19,-4.85,-5.85,-0.06,-0.05,-0.05
66.67,5.16,5.23,5.15,5.23,-5.23,-4.94,-5.84,-0.07,-0.08,-0.08
67.33,5.17,5.26,5.16,5.25,-5.25,-5.02,-5.82,-0.09,-0.10,-0.10
68.01,5.16,5.28,5.16,5.28,-5.28,-5.10,-5.80,-0.12,-0.12,-0.13
68.69,5.17,5.31,5.15,5.30,-5.30,-5.18,-5.77,-0.14,-0.15,-0.15
69.37,5.16,5.33,5.15,5.32,-5.32,-5.26,-5.74,-0.17,-0.18,-0.18
70.07,5.15,5.35,5.14,5.34,-5.34,-5.34,-5.71,-0.19,-0.20,-0.21
70.77,5.14,5.36,5.13,5.36,-5.36,-5.42,-5.67,-0.22,-0.23,-0.23
71.48,5.13,5.38,5.11,5.37,-5.37,-5.50,-5.63,-0.25,-0.26,-0.26
72.19,5.11,5.39,5.10,5.39,-5.39,-5.57,-5.59,-0.29,-0.29,-0.29
72.91,5.09,5.41,5.09,5.41,-5.41,-5.65,-5.54,-0.32,-0.32,-0.33
73.64,5.07,5.42,5.07,5.43,-5.43,-5.72,-5.50,-0.36,-0.36,-0.36
74.38,5.04,5.42,5.06,5.45,-5.45,-5.79,-5.46,-0.41,-0.39,-0.39
75.12,5.04,5.47,5.05,5.47,-5.47,-5.86,-5.41,-0.44,-0.43,-0.44
75.87,5.02,5.48,5.04,5.50,-5.50,-5.92,-5.37,-0.48,-0.46,-0.47
76.63,5.01,5.50,5.03,5.53,-5.53,-5.99,-5.33,-0.52,-0.50,-0.50
77.40,5.01,5.54,5.02,5.56,-5.56,-6.05,-5.29,-0.55,-0.54,-0.54
78.17,5.01,5.60,5.02,5.60,-5.60,-6.10,-5.25,-0.59,-0.58,-0.60
78.95,5.02,5.63,5.01,5.64,-5.64,-6.15,-5.21,-0.62,-0.62,-0.62
79.74,5.01,5.66,5.01,5.68,-5.68,-6.20,-5.18,-0.67,-0.66,-0.66
80.54,5.01,5.71,5.01,5.72,-5.72,-6.25,-5.15,-0.71,-0.71,-0.71
81.35,5.02,5.76,5.01,5.76,-5.76,-6.29,-5.12,-0.74,-0.75,-0.75
82.16,5.01,5.80,5.00,5.80,-5.80,-6.33,-5.10,-0.79,-0.79,-0.80
82.98,5.00,5.83,4.99,5.83,-5.83,-6.36,-5.08,-0.84,-0.84,-0.84
83.81,4.99,5.88,4.98,5.87,-5.87,-6.39,-5.06,-0.88,-0.88,-0.90
84.65,4.97,5.90,4.96,5.90,-5.90,-6.41,-5.04,-0.93,-0.93,-0.94
85.50,4.96,5.93,4.94,5.92,-5.92,-6.43,-5.03,-0.96,-0.98,-0.98
86.35,4.93,5.95,4.91,5.94,-5.94,-6.44,-5.03,-1.01,-1.03,-1.03
87.22,4.89,5.96,4.87,5.95,-5.95,-6.45,-5.02,-1.06,-1.08,-1.08
88.09,4.85,5.98,4.83,5.96,-5.96,-6.46,-5.03,-1.11,-1.13,-1.14
88.97,4.79,5.96,4.79,5.96,-5.96,-6.46,-5.03,-1.18,-1.18,-1.18
89.86,4.74,5.96,4.73,5.96,-5.96,-6.45,-5.04,-1.22,-1.23,-1.23
90.76,4.68,5.96,4.67,5.95,-5.95,-6.44,-5.05,-1.28,-1.28,-1.29
91.66,4.61,5.94,4.61,5.95,-5.95,-6.43,-5.07,-1.34,-1.33,-1.34
92.58,4.55,5.94,4.55,5.93,-5.93,-6.41,-5.09,-1.39,-1.39,-1.40
93.51,4.48,5.91,4.48,5.92,-5.92,-6.38,-5.11,-1.44,-1.44,-1.44
94.44,4.41,5.89,4.41,5.90,-5.90,-6.35,-5.14,-1.50,-1.50,-1.49
95.39,4.34,5.88,4.34,5.89,-5.89,-6.32,-5.17,-1.55,-1.55,-1.55
96.34,4.26,5.87,4.27,5.88,-5.88,-6.28,-5.21,-1.62,-1.61,-1.62
97.30,4.18,5.84,4.19,5.86,-5.86,-6.24,-5.24,-1.68,-1.67,-1.67
98.28,4.11,5.83,4.12,5.85,-5.85,-6.19,-5.28,-1.74,-1.73,-1.73
99.26,4.04,5.83,4.05,5.83,-5.83,-6.14,-5.33,-1.80,-1.79,-1.80
100.25,3.97,5.81,3.97,5.82,-5.82,-6.09,-5.37,-1.86,-1.85,-1.85
101.25,3.90,5.80,3.90,5.81,-5.81,-6.03,-5.42,-1.91,-1.91,-1.91
102.27,3.83,5.80,3.83,5.80,-5.80,-5.97,-5.47,-1.97,-1.97,-1.98
103.29,3.76,5.80,3.75,5.78,-5.78,-5.91,-5.52,-2.03,-2.03,-2.05
104.32,3.69,5.78,3.67,5.77,-5.77,-5.84,-5.57,-2.08,-2.10,-2.10
105.37,3.61,5.76,3.60,5.76,-5.76,-5.78,-5.62,-2.15,-2.16,-2.16
106.42,3.52,5.74,3.52,5.75,-5.75,-5.71,-5.68,-2.23,-2.23,-2.23
107.48,3.44,5.73,3.44,5.73,-5.73,-5.63,-5.73,-2.30,-2.29,-2.30
108.56,3.36,5.72,3.36,5.72,-5.72,-5.56,-5.78,-2.36,-2.36,-2.37
109.64,3.27,5.69,3.28,5.70,-5.70,-5.49,-5.83,-2.44,-2.43,-2.43
110.74,3.19,5.67,3.19,5.69,-5.69,-5.41,-5.88,-2.50,-2.49,-2.49
111.85,3.10,5.65,3.11,5.67,-5.67,-5.33,-5.92,-2.57,-2.56,-2.56
112.97,3.01,5.64,3.02,5.65,-5.65,-5.25,-5.96,-2.64,-2.63,-2.64
114.10,2.92,5.61,2.93,5.62,-5.62,-5.17,-6.00,-2.71,-2.70,-2.70
115.24,2.85,5.61,2.83,5.60,-5.60,-5.09,-6.03,-2.75,-2.76,-2.77
116.39,2.76,5.59,2.74,5.57,-5.57,-5.01,-6.06,-2.81,-2.83,-2.84
117.55,2.65,5.55,2.64,5.54,-5.54,-4.93,-6.08,-2.89,-2.90,-2.91
118.73,2.55,5.51,2.54,5.50,-5.50,-4.85,-6.09,-2.95,-2.96,-2.97
119.92,2.45,5.47,2.44,5.46,-5.46,-4.77,-6.10,-3.01,-3.02,-3.03
121.12,2.34,5.42,2.33,5.42,-5.42,-4.69,-6.10,-3.08,-3.09,-3.09
122.33,2.23,5.38,2.22,5.37,-5.37,-4.61,-6.09,-3.14,-3.15,-3.16
123.55,2.11,5.31,2.11,5.32,-5.32,-4.53,-6.07,-3.21,-3.21,-3.21
124.79,2.00,5.26,2.00,5.27,-5.27,-4.45,-6.05,-3.27,-3.27,-3.27
126.03,1.88,5.19,1.88,5.21,-5.21,-4.37,-6.01,-3.33,-3.33,-3.32
127.29,1.77,5.14,1.77,5.15,-5.15,-4.29,-5.97,-3.38,-3.38,-3.38
128.57,1.65,5.09,1.65,5.09,-5.09,-4.21,-5.92,-3.44,-3.44,-3.45
129.85,1.54,5.03,1.54,5.03,-5.03,-4.13,-5.86,-3.49,-3.49,-3.50
131.15,1.43,4.97,1.43,4.97,-4.97,-4.06,-5.80,-3.55,-3.55,-3.55
132.46,1.32,4.92,1.32,4.91,-4.91,-3.98,-5.72,-3.60,-3.60,-3.61
133.79,1.21,4.85,1.21,4.86,-4.86,-3.90,-5.64,-3.65,-3.65,-3.65
135.12,1.10,4.80,1.11,4.80,-4.80,-3.83,-5.55,-3.70,-3.69,-3.71
136.48,0.99,4.72,1.01,4.74,-4.74,-3.75,-5.46,-3.75,-3.74,-3.74
137.84,0.89,4.66,0.91,4.68,-4.68,-3.68,-5.36,-3.80,-3.78,-3.78
139.22,0.80,4.62,0.81,4.63,-4.63,-3.61,-5.25,-3.83,-3.82,-3.83
140.61,0.71,4.57,0.71,4.57,-4.57,-3.54,-5.14,-3.86,-3.85,-3.87
142.02,0.63,4.51,0.62,4.51,-4.51,-3.47,-5.03,-3.88,-3.89,-3.89
143.44,0.54,4.45,0.52,4.45,-4.45,-3.40,-4.91,-3.91,-3.92,-3.92
144.87,0.45,4.40,0.43,4.38,-4.38,-3.33,-4.79,-3.94,-3.95,-3.96
146.32,0.36,4.34,0.34,4.32,-4.32,-3.26,-4.67,-3.96,-3.98,-3.99
147.78,0.26,4.26,0.25,4.26,-4.26,-3.19,-4.54,-4.00,-4.01,-4.01
149.26,0.16,4.19,0.15,4.20,-4.20,-3.13,-4.42,-4.04,-4.04,-4.04
150.75,0.06,4.13,0.06,4.13,-4.13,-3.06,-4.29,-4.07,-4.07,-4.08
152.26,-0.03,4.06,-0.03,4.07,-4.07,-3.00,-4.17,-4.10,-4.10,-4.10
153.78,-0.13,3.99,-0.12,4.00,-4.00,-2.94,-4.04,-4.13,-4.12,-4.13
155.32,-0.22,3.92,-0.22,3.93,-3.93,-2.87,-3.91,-4.16,-4.15,-4.15
156.88,-0.31,3.86,-0.31,3.87,-3.87,-2.81,-3.79,-4.18,-4.18,-4.18
158.44,-0.41,3.79,-0.40,3.80,-3.80,-2.75,-3.66,-4.21,-4.21,-4.21
160.03,-0.49,3.74,-0.50,3.74,-3.74,-2.69,-3.54,-4.23,-4.23,-4.24
161.63,-0.59,3.67,-0.59,3.67,-3.67,-2.64,-3.42,-4.27,-4.26,-4.27
163.24,-0.68,3.61,-0.68,3.61,-3.61,-2.58,-3.29,-4.29,-4.29,-4.30
164.88,-0.76,3.55,-0.77,3.55,-3.55,-2.52,-3.17,-4.31,-4.32,-4.32
166.53,-0.85,3.48,-0.86,3.49,-3.49,-2.47,-3.05,-4.34,-4.34,-4.34
168.19,-0.94,3.43,-0.95,3.43,-3.43,-2.41,-2.94,-4.37,-4.37,-4.38
169.87,-1.03,3.37,-1.03,3.37,-3.37,-2.36,-2.82,-4.40,-4.40,-4.41
171.57,-1.12,3.31,-1.12,3.31,-3.31,-2.30,-2.71,-4.44,-4.44,-4.44
173.29,-1.21,3.24,-1.21,3.26,-3.26,-2.25,-2.60,-4.47,-4.47,-4.46
175.02,-1.30,3.19,-1.30,3.20,-3.20,-2.20,-2.48,-4.50,-4.50,-4.50
176.77,-1.40,3.13,-1.39,3.14,-3.14,-2.15,-2.38,-4.55,-4.54,-4.54
178.54,-1.49,3.08,-1.49,3.08,-3.08,-2.10,-2.27,-4.58,-4.57,-4.58
180.32,-1.58,3.02,-1.58,3.02,-3.02,-2.05,-2.16,-4.61,-4.60,-4.61
182.13,-1.67,2.96,-1.68,2.96,-2.96,-2.00,-2.06,-4.64,-4.64,-4.64
183.95,-1.77,2.90,-1.77,2.90,-2.90,-1.95,-1.96,-4.67,-4.67,-4.68
185.79,-1.86,2.85,-1.87,2.84,-2.84,-1.90,-1.86,-4.70,-4.71,-4.72
187.65,-1.96,2.79,-1.97,2.77,-2.77,-1.85,-1.76,-4.73,-4.74,-4.76
189.52,-2.07,2.71,-2.08,2.70,-2.70,-1.81,-1.66,-4.77,-4.77,-4.79
191.42,-2.17,2.63,-2.18,2.63,-2.63,-1.76,-1.57,-4.80,-4.81,-4.81
193.33,-2.28,2.54,-2.29,2.55,-2.55,-1.71,-1.47,-4.83,-4.84,-4.83
195.27,-2.39,2.46,-2.39,2.47,-2.47,-1.66,-1.38,-4.87,-4.87,-4.86
197.22,-2.50,2.38,-2.50,2.39,-2.39,-1.62,-1.29,-4.89,-4.89,-4.89
199.19,-2.61,2.32,-2.61,2.30,-2.30,-1.57,-1.20,-4.92,-4.92,-4.94
201.18,-2.72,2.22,-2.73,2.22,-2.22,-1.53,-1.11,-4.94,-4.94,-4.95
203.19,-2.84,2.12,-2.84,2.13,-2.13,-1.48,-1.03,-4.97,-4.96,-4.97
205.23,-2.95,2.03,-2.95,2.03,-2.03,-1.43,-0.95,-4.99,-4.99,-4.99
207.28,-3.06,1.93,-3.07,1.94,-1.94,-1.39,-0.87,-5.00,-5.01,-5.00
209.35,-3.17,1.85,-3.18,1.85,-1.85,-1.34,-0.79,-5.02,-5.03,-5.03
211.44,-3.28,1.76,-3.29,1.75,-1.75,-1.29,-0.71,-5.04,-5.04,-5.05
213.56,-3.40,1.66,-3.40,1.66,-1.66,-1.24,-0.63,-5.06,-5.06,-5.07
215.69,-3.51,1.55,-3.51,1.56,-1.56,-1.20,-0.56,-5.08,-5.07,-5.07
217.85,-3.62,1.45,-3.62,1.47,-1.47,-1.15,-0.49,-5.09,-5.09,-5.08
220.03,-3.73,1.37,-3.72,1.37,-1.37,-1.10,-0.42,-5.10,-5.10,-5.11
222.23,-3.83,1.28,-3.83,1.28,-1.28,-1.05,-0.36,-5.11,-5.10,-5.12
224.45,-3.93,1.17,-3.93,1.18,-1.18,-0.99,-0.29,-5.11,-5.11,-5.11
226.70,-4.03,1.08,-4.02,1.09,-1.09,-0.94,-0.23,-5.12,-5.11,-5.12
228.96,-4.12,0.99,-4.12,0.99,-0.99,-0.89,-0.17,-5.11,-5.11,-5.12
231.25,-4.22,0.88,-4.21,0.90,-0.90,-0.83,-0.12,-5.12,-5.11,-5.11
233.57,-4.31,0.78,-4.31,0.80,-0.80,-0.77,-0.07,-5.11,-5.10,-5.10
235.90,-4.40,0.69,-4.40,0.70,-0.70,-0.72,-0.02,-5.10,-5.09,-5.10
238.26,-4.48,0.61,-4.49,0.60,-0.60,-0.65,0.03,-5.08,-5.08,-5.10
240.64,-4.57,0.50,-4.58,0.49,-0.49,-0.59,0.07,-5.07,-5.07,-5.08
243.05,-4.65,0.40,-4.67,0.39,-0.39,-0.52,0.11,-5.04,-5.06,-5.06
245.48,-4.75,0.28,-4.76,0.28,-0.28,-0.46,0.14,-5.03,-5.04,-5.04
247.93,-4.84,0.18,-4.86,0.17,-0.17,-0.38,0.17,-5.01,-5.02,-5.03
250.41,-4.93,0.08,-4.95,0.05,-0.05,-0.31,0.20,-4.98,-5.00,-5.02
252.92,-5.03,-0.06,-5.05,-0.07,0.07,-0.23,0.23,-4.97,-4.98,-4.98
255.45,-5.14,-0.19,-5.15,-0.19,0.19,-0.15,0.25,-4.96,-4.96,-4.96
258.00,-5.24,-0.31,-5.24,-0.30,0.30,-0.06,0.27,-4.94,-4.94,-4.94
260.58,-5.34,-0.43,-5.34,-0.43,0.43,0.03,0.28,-4.92,-4.92,-4.92
263.19,-5.44,-0.55,-5.44,-0.55,0.55,0.12,0.29,-4.89,-4.89,-4.90
265.82,-5.54,-0.67,-5.54,-0.67,0.67,0.22,0.30,-4.87,-4.87,-4.88
268.48,-5.63,-0.79,-5.64,-0.79,0.79,0.32,0.31,-4.84,-4.85,-4.85
271.16,-5.71,-0.90,-5.73,-0.91,0.91,0.42,0.31,-4.80,-4.82,-4.82
273.87,-5.80,-1.01,-5.82,-1.02,1.02,0.53,0.31,-4.78,-4.80,-4.80
276.61,-5.88,-1.12,-5.91,-1.13,1.13,0.63,0.31,-4.75,-4.77,-4.77
279.38,-5.95,-1.21,-5.98,-1.23,1.23,0.74,0.30,-4.72,-4.75,-4.75
282.17,-6.02,-1.30,-6.04,-1.32,1.32,0.85,0.30,-4.71,-4.72,-4.73
284.99,-6.08,-1.39,-6.08,-1.39,1.39,0.96,0.29,-4.70,-4.70,-4.70
287.84,-6.13,-1.46,-6.11,-1.44,1.44,1.06,0.28,-4.69,-4.67,-4.68
290.72,-6.15,-1.52,-6.11,-1.47,1.47,1.16,0.27,-4.68,-4.64,-4.64
293.63,-6.16,-1.55,-6.10,-1.49,1.49,1.25,0.26,-4.68,-4.61,-4.62
296.57,-6.13,-1.55,-6.06,-1.48,1.48,1.33,0.24,-4.66,-4.58,-4.59
299.53,-6.08,-1.53,-6.00,-1.45,1.45,1.40,0.23,-4.63,-4.55,-4.56
302.53,-6.01,-1.48,-5.92,-1.40,1.40,1.45,0.21,-4.61,-4.52,-4.54
305.55,-5.90,-1.42,-5.83,-1.34,1.34,1.49,0.20,-4.56,-4.49,-4.49
308.61,-5.75,-1.30,-5.72,-1.26,1.26,1.50,0.18,-4.49,-4.46,-4.46
311.69,-5.60,-1.19,-5.60,-1.18,1.18,1.50,0.16,-4.43,-4.42,-4.42
314.81,-5.44,-1.06,-5.48,-1.09,1.09,1.49,0.14,-4.36,-4.39,-4.39
317.96,-5.29,-0.94,-5.35,-0.99,0.99,1.45,0.12,-4.30,-4.36,-4.36
321.14,-5.15,-0.83,-5.23,-0.90,0.90,1.40,0.10,-4.25,-4.33,-4.33
324.35,-5.04,-0.74,-5.12,-0.82,0.82,1.33,0.08,-4.23,-4.30,-4.31
327.59,-4.94,-0.68,-5.01,-0.74,0.74,1.26,0.06,-4.20,-4.27,-4.27
330.87,-4.86,-0.63,-4.92,-0.68,0.68,1.18,0.04,-4.18,-4.24,-4.24
334.18,-4.80,-0.59,-4.84,-0.63,0.63,1.09,0.02,-4.17,-4.22,-4.22
337.52,-4.75,-0.56,-4.78,-0.59,0.59,0.99,0.01,-4.16,-4.19,-4.20
340.90,-4.72,-0.56,-4.74,-0.57,0.57,0.89,-0.01,-4.16,-4.17,-4.17
344.30,-4.70,-0.56,-4.70,-0.56,0.56,0.80,-0.03,-4.15,-4.14,-4.15
347.75,-4.68,-0.57,-4.68,-0.55,0.55,0.70,-0.05,-4.13,-4.12,-4.12
351.23,-4.66,-0.57,-4.66,-0.56,0.56,0.61,-0.07,-4.11,-4.10,-4.10
354.74,-4.64,-0.56,-4.64,-0.56,0.56,0.52,-0.09,-4.08,-4.08,-4.09
358.28,-4.65,-0.59,-4.63,-0.57,0.57,0.43,-0.11,-4.08,-4.06,-4.07
361.87,-4.64,-0.60,-4.62,-0.58,0.58,0.35,-0.13,-4.07,-4.04,-4.05
365.49,-4.63,-0.62,-4.60,-0.58,0.58,0.27,-0.15,-4.05,-4.02,-4.02
369.14,-4.61,-0.61,-4.59,-0.58,0.58,0.19,-0.17,-4.03,-4.00,-4.01
372.83,-4.58,-0.59,-4.57,-0.59,0.59,0.12,-0.19,-4.00,-3.98,-4.00
376.56,-4.55,-0.58,-4.55,-0.58,0.58,0.05,-0.21,-3.97,-3.96,-3.98
380.33,-4.52,-0.58,-4.52,-0.58,0.58,-0.02,-0.23,-3.95,-3.95,-3.95
384.13,-4.48,-0.56,-4.49,-0.57,0.57,-0.08,-0.25,-3.91,-3.93,-3.93
387.97,-4.45,-0.55,-4.46,-0.56,0.56,-0.14,-0.27,-3.90,-3.91,-3.91
391.85,-4.41,-0.53,-4.43,-0.54,0.54,-0.19,-0.29,-3.87,-3.89,-3.89
395.77,-4.37,-0.52,-4.38,-0.52,0.52,-0.24,-0.30,-3.85,-3.86,-3.86
399.73,-4.33,-0.50,-4.34,-0.49,0.49,-0.29,-0.32,-3.84,-3.84,-3.84
403.72,-4.29,-0.47,-4.29,-0.47,0.47,-0.34,-0.34,-3.83,-3.82,-3.83
407.76,-4.24,-0.44,-4.23,-0.43,0.43,-0.38,-0.36,-3.81,-3.80,-3.81
411.84,-4.19,-0.42,-4.18,-0.40,0.40,-0.42,-0.38,-3.79,-3.78,-3.78
415.96,-4.12,-0.37,-4.11,-0.36,0.36,-0.46,-0.40,-3.76,-3.75,-3.76
420.12,-4.05,-0.32,-4.04,-0.31,0.31,-0.50,-0.42,-3.74,-3.73,-3.74
424.32,-3.98,-0.28,-3.97,-0.26,0.26,-0.53,-0.43,-3.72,-3.71,-3.71
428.56,-3.89,-0.21,-3.89,-0.20,0.20,-0.57,-0.45,-3.69,-3.69,-3.69
432.85,-3.81,-0.15,-3.81,-0.14,0.14,-0.60,-0.47,-3.67,-3.66,-3.67
437.18,-3.72,-0.09,-3.72,-0.08,0.08,-0.63,-0.49,-3.64,-3.64,-3.64
441.55,-3.62,-0.02,-3.63,-0.01,0.01,-0.66,-0.51,-3.61,-3.61,-3.61
445.96,-3.53,0.05,-3.53,0.06,-0.06,-0.69,-0.53,-3.59,-3.59,-3.59
450.42,-3.42,0.15,-3.43,0.13,-0.13,-0.72,-0.54,-3.55,-3.56,-3.58
454.93,-3.33,0.20,-3.33,0.20,-0.20,-0.75,-0.56,-3.53,-3.53,-3.54
459.48,-3.22,0.29,-3.23,0.27,-0.27,-0.78,-0.58,-3.50,-3.51,-3.52
464.07,-3.12,0.36,-3.13,0.35,-0.35,-0.80,-0.60,-3.47,-3.48,-3.49
468.71,-3.02,0.42,-3.04,0.42,-0.42,-0.83,-0.62,-3.44,-3.45,-3.45
473.40,-2.92,0.50,-2.94,0.49,-0.49,-0.85,-0.64,-3.41,-3.42,-3.43
478.13,-2.83,0.56,-2.84,0.56,-0.56,-0.88,-0.65,-3.39,-3.40,-3.40
