frequency,raw,error,smoothed,error_smoothed,equalization,parametric_eq,fixed_band_eq,equalized_raw,equalized_smoothed,target
20.00,-13.04,-12.67,-13.05,-12.70,12.70,11.82,4.32,-0.34,-0.35,-0.37
20.20,-12.91,-12.63,-12.91,-12.64,12.64,11.91,4.43,-0.27,-0.27,-0.28
20.40,-12.77,-12.57,-12.78,-12.58,12.58,11.99,4.55,-0.19,-0.20,-0.20
20.61,-12.65,-12.51,-12.64,-12.52,12.52,12.06,4.67,-0.13,-0.12,-0.13
20.81,-12.50,-12.46,-12.50,-12.45,12.45,12.12,4.79,-0.05,-0.06,-0.04
21.02,-12.37,-12.41,-12.37,-12.38,12.38,12.16,4.92,0.01,0.01,0.04
21.23,-12.23,-12.33,-12.23,-12.31,12.31,12.20,5.05,0.07,0.08,0.10
21.44,-12.09,-12.25,-12.10,-12.23,12.23,12.22,5.18,0.14,0.14,0.16
21.66,-11.96,-12.17,-11.96,-12.15,12.15,12.23,5.31,0.19,0.20,0.21
21.87,-11.82,-12.08,-11.82,-12.07,12.07,12.23,5.45,0.25,0.25,0.26
22.09,-11.68,-11.99,-11.68,-11.99,11.99,12.22,5.60,0.31,0.30,0.31
22.31,-11.54,-11.90,-11.55,-11.90,11.90,12.19,5.74,0.36,0.36,0.36
22.54,-11.41,-11.80,-11.41,-11.81,11.81,12.15,5.89,0.40,0.40,0.40
22.76,-11.27,-11.71,-11.27,-11.71,11.71,12.10,6.05,0.44,0.44,0.44
22.99,-11.13,-11.60,-11.13,-11.61,11.61,12.04,6.21,0.48,0.48,0.47
23.22,-10.99,-11.50,-10.99,-11.51,11.51,11.97,6.37,0.52,0.52,0.51
23.45,-10.85,-11.40,-10.85,-11.41,11.41,11.89,6.53,0.55,0.56,0.55
23.69,-10.72,-11.30,-10.71,-11.30,11.30,11.79,6.70,0.59,0.59,0.59
23.92,-10.57,-11.20,-10.57,-11.20,11.20,11.69,6.88,0.63,0.63,0.63
24.16,-10.43,-11.11,-10.43,-11.10,11.10,11.58,7.05,0.66,0.66,0.68
24.40,-10.29,-11.00,-10.29,-10.99,10.99,11.47,7.23,0.70,0.70,0.71
24.65,-10.15,-10.88,-10.15,-10.89,10.89,11.34,7.42,0.73,0.73,0.73
24.89,-10.01,-10.77,-10.01,-10.78,10.78,11.21,7.60,0.77,0.77,0.76
25.14,-9.87,-10.67,-9.88,-10.67,10.67,11.08,7.79,0.80,0.80,0.80
25.39,-9.73,-10.56,-9.74,-10.57,10.57,10.94,7.98,0.84,0.83,0.83
25.65,-9.60,-10.47,-9.60,-10.46,10.46,10.80,8.17,0.86,0.86,0.87
25.91,-9.47,-10.35,-9.46,-10.35,10.35,10.65,8.37,0.89,0.89,0.89
26.16,-9.32,-10.24,-9.32,-10.25,10.25,10.50,8.56,0.93,0.93,0.92
26.43,-9.19,-10.14,-9.18,-10.14,10.14,10.35,8.76,0.95,0.95,0.96
26.69,-9.04,-10.03,-9.05,-10.03,10.03,10.19,8.95,0.99,0.98,0.99
26.96,-8.90,-9.92,-8.91,-9.92,9.92,10.04,9.14,1.02,1.01,1.02
27.23,-8.77,-9.82,-8.77,-9.82,9.82,9.88,9.33,1.04,1.05,1.05
27.50,-8.63,-9.71,-8.63,-9.71,9.71,9.73,9.52,1.08,1.08,1.08
27.77,-8.50,-9.60,-8.50,-9.60,9.60,9.57,9.70,1.10,1.11,1.10
28.05,-8.36,-9.50,-8.36,-9.50,9.50,9.41,9.88,1.14,1.14,1.14
28.33,-8.23,-9.39,-8.23,-9.39,9.39,9.26,10.04,1.16,1.17,1.16
28.62,-8.10,-9.28,-8.09,-9.29,9.29,9.10,10.20,1.19,1.20,1.19
28.90,-7.96,-9.19,-7.96,-9.19,9.19,8.95,10.35,1.22,1.23,1.23
29.19,-7.82,-9.07,-7.83,-9.08,9.08,8.79,10.48,1.26,1.25,1.25
29.48,-7.69,-8.99,-7.70,-8.98,8.98,8.64,10.60,1.29,1.28,1.30
29.78,-7.56,-8.87,-7.57,-8.88,8.88,8.49,10.70,1.32,1.31,1.31
30.08,-7.44,-8.77,-7.44,-8.78,8.78,8.34,10.78,1.35,1.34,1.34
30.38,-7.31,-8.68,-7.32,-8.68,8.68,8.19,10.85,1.37,1.37,1.37
30.68,-7.19,-8.59,-7.19,-8.58,8.58,8.04,10.89,1.39,1.39,1.40
30.99,-7.07,-8.49,-7.07,-8.48,8.48,7.90,10.92,1.41,1.42,1.42
31.30,-6.94,-8.38,-6.94,-8.39,8.39,7.76,10.92,1.44,1.44,1.44
31.61,-6.82,-8.29,-6.82,-8.29,8.29,7.62,10.91,1.46,1.47,1.47
31.93,-6.70,-8.19,-6.70,-8.19,8.19,7.48,10.87,1.48,1.49,1.49
32.24,-6.58,-8.09,-6.58,-8.09,8.09,7.34,10.81,1.51,1.51,1.51
32.57,-6.45,-7.99,-6.46,-7.99,7.99,7.20,10.74,1.54,1.54,1.54
32.89,-6.33,-7.89,-6.34,-7.89,7.89,7.07,10.64,1.56,1.56,1.56
33.22,-6.21,-7.79,-6.22,-7.80,7.80,6.94,10.53,1.58,1.58,1.58
33.55,-6.09,-7.69,-6.10,-7.69,7.69,6.81,10.40,1.60,1.59,1.60
33.89,-5.98,-7.59,-5.98,-7.59,7.59,6.68,10.26,1.61,1.61,1.61
34.23,-5.86,-7.49,-5.87,-7.49,7.49,6.56,10.11,1.63,1.62,1.63
34.57,-5.75,-7.39,-5.75,-7.39,7.39,6.43,9.95,1.64,1.64,1.64
34.92,-5.64,-7.29,-5.64,-7.29,7.29,6.31,9.78,1.64,1.65,1.65
35.27,-5.52,-7.19,-5.52,-7.18,7.18,6.19,9.61,1.66,1.66,1.67
35.62,-5.41,-7.07,-5.41,-7.08,7.08,6.08,9.42,1.66,1.67,1.66
35.97,-5.30,-6.97,-5.30,-6.97,6.97,5.96,9.24,1.67,1.67,1.67
36.33,-5.19,-6.88,-5.19,-6.86,6.86,5.85,9.05,1.67,1.68,1.69
36.70,-5.07,-6.75,-5.08,-6.76,6.76,5.74,8.86,1.68,1.68,1.68
37.06,-4.96,-6.64,-4.97,-6.65,6.65,5.63,8.67,1.68,1.68,1.68
37.43,-4.85,-6.53,-4.86,-6.54,6.54,5.52,8.47,1.69,1.68,1.68
37.81,-4.74,-6.42,-4.75,-6.43,6.43,5.41,8.28,1.68,1.68,1.68
38.19,-4.64,-6.32,-4.64,-6.32,6.32,5.31,8.09,1.67,1.68,1.68
38.57,-4.53,-6.21,-4.53,-6.21,6.21,5.21,7.90,1.67,1.67,1.68
38.95,-4.42,-6.10,-4.43,-6.10,6.10,5.10,7.72,1.67,1.67,1.68
39.34,-4.32,-5.98,-4.32,-5.99,5.99,5.01,7.54,1.66,1.67,1.66
39.74,-4.22,-5.88,-4.22,-5.88,5.88,4.91,7.36,1.66,1.66,1.66
40.14,-4.12,-5.77,-4.12,-5.77,5.77,4.81,7.18,1.65,1.66,1.65
40.54,-4.02,-5.67,-4.02,-5.67,5.67,4.72,7.01,1.64,1.65,1.65
40.94,-3.91,-5.55,-3.92,-5.56,5.56,4.63,6.84,1.65,1.64,1.64
41.35,-3.82,-5.46,-3.83,-5.46,5.46,4.54,6.67,1.64,1.64,1.64
41.76,-3.72,-5.35,-3.73,-5.36,5.36,4.45,6.51,1.64,1.63,1.63
42.18,-3.63,-5.25,-3.64,-5.26,5.26,4.36,6.35,1.63,1.62,1.62
42.60,-3.55,-5.16,-3.55,-5.16,5.16,4.27,6.19,1.61,1.61,1.61
43.03,-3.46,-5.07,-3.47,-5.06,5.06,4.19,6.04,1.60,1.60,1.61
43.46,-3.38,-4.98,-3.38,-4.97,4.97,4.11,5.90,1.59,1.59,1.60
43.90,-3.29,-4.87,-3.30,-4.88,4.88,4.02,5.75,1.58,1.58,1.58
44.33,-3.22,-4.78,-3.22,-4.79,4.79,3.94,5.61,1.56,1.57,1.56
44.78,-3.15,-4.70,-3.14,-4.70,4.70,3.86,5.48,1.54,1.56,1.55
45.23,-3.07,-4.61,-3.06,-4.61,4.61,3.79,5.35,1.53,1.55,1.54
45.68,-2.99,-4.52,-2.99,-4.52,4.52,3.71,5.22,1.53,1.53,1.53
46.13,-2.92,-4.44,-2.91,-4.44,4.44,3.64,5.09,1.51,1.52,1.52
46.60,-2.84,-4.36,-2.84,-4.35,4.35,3.56,4.97,1.51,1.51,1.52
47.06,-2.76,-4.27,-2.77,-4.27,4.27,3.49,4.85,1.51,1.50,1.51
47.53,-2.69,-4.19,-2.69,-4.19,4.19,3.42,4.74,1.50,1.50,1.50
48.01,-2.62,-4.12,-2.63,-4.11,4.11,3.35,4.63,1.49,1.49,1.50
48.49,-2.56,-4.05,-2.56,-4.04,4.04,3.28,4.52,1.48,1.48,1.49
48.97,-2.49,-3.97,-2.50,-3.98,3.98,3.21,4.42,1.49,1.48,1.48
49.46,-2.43,-3.89,-2.44,-3.92,3.92,3.15,4.31,1.48,1.47,1.46
49.96,-2.38,-3.83,-2.39,-3.86,3.86,3.08,4.22,1.47,1.47,1.45
50.46,-2.33,-3.79,-2.34,-3.80,3.80,3.02,4.12,1.47,1.46,1.46
50.96,-2.28,-3.74,-2.29,-3.75,3.75,2.95,4.03,1.47,1.46,1.46
51.47,-2.24,-3.69,-2.25,-3.70,3.70,2.89,3.93,1.46,1.46,1.45
51.99,-2.20,-3.65,-2.21,-3.66,3.66,2.83,3.85,1.45,1.45,1.45
52.51,-2.17,-3.62,-2.17,-3.62,3.62,2.77,3.76,1.44,1.45,1.45
53.03,-2.14,-3.59,-2.13,-3.58,3.58,2.71,3.67,1.43,1.44,1.45
53.56,-2.11,-3.56,-2.10,-3.54,3.54,2.65,3.59,1.42,1.44,1.45
54.10,-2.07,-3.51,-2.07,-3.50,3.50,2.59,3.51,1.43,1.43,1.44
54.64,-2.04,-3.47,-2.04,-3.47,3.47,2.54,3.43,1.42,1.42,1.43
55.18,-2.01,-3.43,-2.02,-3.43,3.43,2.48,3.35,1.42,1.42,1.42
55.74,-1.98,-3.38,-1.99,-3.40,3.40,2.43,3.28,1.42,1.41,1.40
56.29,-1.96,-3.36,-1.97,-3.36,3.36,2.37,3.20,1.40,1.39,1.40
56.86,-1.94,-3.32,-1.95,-3.33,3.33,2.32,3.13,1.39,1.38,1.38
57.42,-1.92,-3.28,-1.93,-3.29,3.29,2.27,3.05,1.37,1.37,1.36
58.00,-1.90,-3.25,-1.90,-3.25,3.25,2.22,2.98,1.35,1.35,1.35
58.58,-1.88,-3.21,-1.88,-3.21,3.21,2.17,2.91,1.33,1.33,1.33
59.16,-1.86,-3.18,-1.86,-3.17,3.17,2.12,2.83,1.31,1.31,1.32
59.76,-1.84,-3.14,-1.84,-3.13,3.13,2.07,2.76,1.28,1.28,1.30
60.35,-1.82,-3.09,-1.82,-3.08,3.08,2.02,2.69,1.26,1.26,1.27
60.96,-1.79,-3.05,-1.80,-3.03,3.03,1.97,2.62,1.24,1.24,1.26
61.57,-1.76,-2.97,-1.77,-2.98,2.98,1.92,2.55,1.22,1.21,1.21
62.18,-1.73,-2.91,-1.74,-2.93,2.93,1.88,2.48,1.19,1.19,1.18
62.80,-1.71,-2.88,-1.70,-2.87,2.87,1.83,2.41,1.15,1.17,1.17
63.43,-1.67,-2.80,-1.66,-2.80,2.80,1.78,2.34,1.13,1.14,1.13
64.07,-1.63,-2.74,-1.61,-2.74,2.74,1.74,2.27,1.10,1.12,1.11
64.71,-1.58,-2.68,-1.57,-2.67,2.67,1.69,2.19,1.09,1.10,1.10
65.35,-1.52,-2.60,-1.51,-2.60,2.60,1.65,2.12,1.08,1.09,1.08
66.01,-1.46,-2.53,-1.45,-2.53,2.53,1.61,2.05,1.06,1.07,1.07
66.67,-1.39,-2.45,-1.39,-2.45,2.45,1.56,1.98,1.06,1.06,1.06
67.33,-1.32,-2.37,-1.32,-2.37,2.37,1.52,1.90,1.05,1.05,1.05
68.01,-1.24,-2.28,-1.25,-2.29,2.29,1.48,1.83,1.05,1.04,1.04
68.69,-1.16,-2.19,-1.18,-2.21,2.21,1.44,1.76,1.05,1.03,1.03
69.37,-1.09,-2.12,-1.10,-2.12,2.12,1.40,1.68,1.03,1.02,1.03
70.07,-1.02,-2.04,-1.02,-2.04,2.04,1.36,1.61,1.01,1.02,1.02
70.77,-0.95,-1.97,-0.94,-1.95,1.95,1.32,1.54,1.00,1.01,1.02
71.48,-0.87,-1.88,-0.86,-1.86,1.86,1.28,1.46,0.99,1.00,1.01
72.19,-0.78,-1.77,-0.78,-1.77,1.77,1.24,1.39,0.99,0.99,0.99
72.91,-0.69,-1.68,-0.70,-1.68,1.68,1.20,1.31,0.99,0.98,0.99
73.64,-0.62,-1.59,-0.62,-1.59,1.59,1.16,1.24,0.97,0.97,0.97
74.38,-0.54,-1.50,-0.55,-1.50,1.50,1.12,1.16,0.96,0.95,0.96
75.12,-0.47,-1.41,-0.47,-1.41,1.41,1.08,1.09,0.94,0.94,0.94
75.87,-0.39,-1.32,-0.40,-1.33,1.33,1.04,1.01,0.93,0.93,0.93
76.63,-0.32,-1.24,-0.33,-1.24,1.24,1.00,0.94,0.92,0.91,0.92
77.40,-0.25,-1.15,-0.26,-1.16,1.16,0.97,0.86,0.91,0.90,0.90
78.17,-0.19,-1.07,-0.20,-1.09,1.09,0.93,0.78,0.89,0.89,0.88
78.95,-0.12,-1.00,-0.14,-1.01,1.01,0.89,0.71,0.89,0.88,0.88
79.74,-0.06,-0.93,-0.08,-0.95,0.95,0.85,0.63,0.88,0.87,0.87
80.54,-0.01,-0.87,-0.02,-0.89,0.89,0.82,0.55,0.87,0.86,0.86
81.35,0.04,-0.81,0.03,-0.83,0.83,0.78,0.48,0.86,0.86,0.85
82.16,0.08,-0.76,0.08,-0.77,0.77,0.74,0.40,0.85,0.85,0.84
82.98,0.12,-0.73,0.13,-0.72,0.72,0.70,0.32,0.84,0.85,0.85
83.81,0.16,-0.68,0.17,-0.67,0.67,0.67,0.25,0.83,0.84,0.84
84.65,0.20,-0.63,0.22,-0.63,0.63,0.63,0.17,0.82,0.84,0.83
85.50,0.25,-0.59,0.26,-0.58,0.58,0.59,0.09,0.83,0.84,0.84
86.35,0.30,-0.54,0.30,-0.54,0.54,0.55,0.01,0.84,0.83,0.84
87.22,0.35,-0.48,0.33,-0.50,0.50,0.51,-0.07,0.84,0.83,0.83
88.09,0.39,-0.44,0.37,-0.45,0.45,0.48,-0.15,0.84,0.82,0.83
88.97,0.42,-0.40,0.41,-0.41,0.41,0.44,-0.23,0.82,0.81,0.82
89.86,0.45,-0.36,0.44,-0.36,0.36,0.40,-0.31,0.80,0.80,0.81
90.76,0.48,-0.31,0.48,-0.30,0.30,0.36,-0.39,0.78,0.78,0.79
91.66,0.52,-0.25,0.52,-0.25,0.25,0.32,-0.47,0.76,0.76,0.77
92.58,0.55,-0.19,0.56,-0.18,0.18,0.28,-0.55,0.73,0.74,0.74
93.51,0.58,-0.14,0.59,-0.12,0.12,0.24,-0.63,0.69,0.71,0.72
94.44,0.61,-0.08,0.63,-0.05,0.05,0.20,-0.71,0.65,0.68,0.69
95.39,0.65,-0.00,0.67,0.03,-0.03,0.16,-0.80,0.62,0.64,0.65
96.34,0.70,0.09,0.70,0.10,-0.10,0.12,-0.88,0.59,0.59,0.61
97.30,0.74,0.19,0.73,0.18,-0.18,0.07,-0.96,0.55,0.55,0.55
98.28,0.78,0.28,0.76,0.27,-0.27,0.03,-1.04,0.51,0.50,0.50
99.26,0.82,0.37,0.79,0.35,-0.35,-0.01,-1.13,0.47,0.45,0.45
100.25,0.85,0.46,0.82,0.43,-0.43,-0.06,-1.21,0.41,0.39,0.39
101.25,0.87,0.54,0.85,0.52,-0.52,-0.10,-1.29,0.35,0.33,0.33
102.27,0.88,0.61,0.87,0.60,-0.60,-0.15,-1.37,0.28,0.27,0.27
103.29,0.90,0.69,0.89,0.68,-0.68,-0.20,-1.45,0.22,0.21,0.21
104.32,0.92,0.76,0.92,0.76,-0.76,-0.24,-1.53,0.16,0.15,0.16
105.37,0.93,0.84,0.93,0.84,-0.84,-0.29,-1.61,0.09,0.09,0.09
106.42,0.95,0.92,0.95,0.92,-0.92,-0.34,-1.69,0.03,0.03,0.03
107.48,0.97,0.99,0.97,0.99,-0.99,-0.40,-1.76,-0.02,-0.02,-0.02
108.56,0.99,1.07,0.99,1.07,-1.07,-0.45,-1.84,-0.08,-0.08,-0.08
109.64,1.00,1.14,1.01,1.14,-1.14,-0.50,-1.91,-0.15,-0.14,-0.14
110.74,1.01,1.20,1.03,1.22,-1.22,-0.56,-1.98,-0.21,-0.19,-0.19
111.85,1.04,1.27,1.05,1.30,-1.30,-0.61,-2.05,-0.26,-0.24,-0.23
112.97,1.07,1.37,1.08,1.38,-1.38,-0.67,-2.11,-0.31,-0.30,-0.30
114.10,1.10,1.44,1.11,1.45,-1.45,-0.73,-2.17,-0.36,-0.34,-0.34
115.24,1.14,1.53,1.14,1.53,-1.53,-0.79,-2.23,-0.39,-0.39,-0.39
116.39,1.16,1.60,1.17,1.60,-1.60,-0.86,-2.28,-0.44,-0.43,-0.44
117.55,1.19,1.67,1.19,1.67,-1.67,-0.92,-2.33,-0.48,-0.47,-0.48
118.73,1.23,1.75,1.22,1.73,-1.73,-0.99,-2.37,-0.50,-0.51,-0.52
119.92,1.27,1.82,1.24,1.79,-1.79,-1.06,-2.41,-0.52,-0.55,-0.55
121.12,1.29,1.87,1.26,1.84,-1.84,-1.13,-2.44,-0.56,-0.58,-0.58
122.33,1.30,1.91,1.28,1.89,-1.89,-1.20,-2.47,-0.59,-0.61,-0.61
123.55,1.32,1.96,1.29,1.94,-1.94,-1.28,-2.49,-0.62,-0.64,-0.64
124.79,1.32,1.99,1.30,1.98,-1.98,-1.35,-2.51,-0.66,-0.67,-0.67
126.03,1.32,2.01,1.31,2.01,-2.01,-1.43,-2.52,-0.69,-0.70,-0.69
127.29,1.31,2.03,1.31,2.04,-2.04,-1.51,-2.53,-0.73,-0.73,-0.72
128.57,1.30,2.06,1.31,2.07,-2.07,-1.59,-2.53,-0.77,-0.76,-0.76
129.85,1.30,2.08,1.31,2.10,-2.10,-1.68,-2.53,-0.80,-0.79,-0.78
131.15,1.30,2.11,1.31,2.12,-2.12,-1.76,-2.52,-0.83,-0.81,-0.81
132.46,1.30,2.15,1.31,2.15,-2.15,-1.85,-2.50,-0.85,-0.84,-0.85
133.79,1.30,2.17,1.30,2.18,-2.18,-1.94,-2.49,-0.88,-0.87,-0.87
135.12,1.30,2.20,1.30,2.20,-2.20,-2.03,-2.46,-0.91,-0.91,-0.90
136.48,1.30,2.23,1.30,2.23,-2.23,-2.12,-2.44,-0.94,-0.94,-0.93
137.84,1.30,2.26,1.30,2.26,-2.26,-2.21,-2.41,-0.97,-0.97,-0.96
139.22,1.30,2.31,1.29,2.30,-2.30,-2.30,-2.38,-1.00,-1.00,-1.01
140.61,1.30,2.34,1.29,2.33,-2.33,-2.39,-2.34,-1.03,-1.04,-1.04
142.02,1.30,2.36,1.29,2.36,-2.36,-2.49,-2.30,-1.07,-1.07,-1.06
143.44,1.30,2.40,1.30,2.40,-2.40,-2.58,-2.26,-1.10,-1.10,-1.10
144.87,1.30,2.44,1.30,2.44,-2.44,-2.66,-2.22,-1.14,-1.14,-1.14
146.32,1.30,2.48,1.30,2.47,-2.47,-2.75,-2.17,-1.18,-1.17,-1.18
147.78,1.30,2.51,1.30,2.51,-2.51,-2.83,-2.13,-1.22,-1.21,-1.21
149.26,1.30,2.54,1.30,2.56,-2.56,-2.91,-2.08,-1.26,-1.25,-1.24
150.75,1.30,2.59,1.31,2.60,-2.60,-2.98,-2.03,-1.30,-1.29,-1.29
152.26,1.30,2.63,1.31,2.64,-2.64,-3.05,-1.98,-1.35,-1.33,-1.33
153.78,1.30,2.66,1.31,2.68,-2.68,-3.12,-1.93,-1.39,-1.37,-1.36
155.32,1.31,2.72,1.31,2.72,-2.72,-3.17,-1.88,-1.42,-1.41,-1.41
156.88,1.32,2.76,1.31,2.77,-2.77,-3.22,-1.83,-1.45,-1.46,-1.44
158.44,1.32,2.82,1.31,2.80,-2.80,-3.26,-1.79,-1.49,-1.50,-1.50
160.03,1.32,2.86,1.30,2.84,-2.84,-3.30,-1.74,-1.52,-1.54,-1.54
161.63,1.31,2.90,1.29,2.87,-2.87,-3.32,-1.69,-1.57,-1.58,-1.59
163.24,1.30,2.93,1.28,2.90,-2.90,-3.34,-1.64,-1.61,-1.63,-1.63
164.88,1.27,2.94,1.26,2.93,-2.93,-3.34,-1.60,-1.66,-1.67,-1.67
166.53,1.25,2.96,1.24,2.95,-2.95,-3.34,-1.55,-1.71,-1.71,-1.71
168.19,1.22,2.97,1.22,2.97,-2.97,-3.33,-1.50,-1.75,-1.75,-1.75
169.87,1.18,2.97,1.19,2.98,-2.98,-3.30,-1.46,-1.81,-1.79,-1.79
171.57,1.16,2.98,1.16,2.99,-2.99,-3.27,-1.42,-1.84,-1.83,-1.82
173.29,1.14,3.00,1.13,3.00,-3.00,-3.24,-1.38,-1.86,-1.86,-1.86
175.02,1.10,3.00,1.10,3.00,-3.00,-3.19,-1.34,-1.90,-1.90,-1.90
176.77,1.07,3.00,1.07,3.00,-3.00,-3.14,-1.30,-1.93,-1.93,-1.93
178.54,1.04,3.00,1.04,2.99,-2.99,-3.08,-1.26,-1.96,-1.96,-1.96
180.32,1.00,2.99,1.00,2.99,-2.99,-3.02,-1.22,-1.99,-1.98,-1.99
182.13,0.97,2.98,0.97,2.98,-2.98,-2.95,-1.18,-2.01,-2.01,-2.01
183.95,0.92,2.95,0.94,2.97,-2.97,-2.88,-1.15,-2.05,-2.03,-2.03
185.79,0.89,2.94,0.90,2.95,-2.95,-2.80,-1.12,-2.07,-2.05,-2.05
187.65,0.87,2.94,0.86,2.93,-2.93,-2.72,-1.08,-2.07,-2.07,-2.07
189.52,0.84,2.92,0.83,2.91,-2.91,-2.64,-1.05,-2.08,-2.09,-2.08
191.42,0.80,2.90,0.79,2.89,-2.89,-2.56,-1.02,-2.09,-2.10,-2.10
193.33,0.76,2.87,0.74,2.86,-2.86,-2.48,-0.99,-2.10,-2.12,-2.11
195.27,0.71,2.83,0.70,2.83,-2.83,-2.40,-0.96,-2.12,-2.13,-2.12
197.22,0.67,2.81,0.66,2.80,-2.80,-2.32,-0.93,-2.13,-2.14,-2.14
199.19,0.61,2.77,0.61,2.76,-2.76,-2.24,-0.91,-2.15,-2.15,-2.16
201.18,0.55,2.72,0.56,2.72,-2.72,-2.16,-0.88,-2.18,-2.17,-2.17
203.19,0.50,2.67,0.50,2.68,-2.68,-2.08,-0.86,-2.19,-2.18,-2.17
205.23,0.45,2.64,0.45,2.64,-2.64,-2.00,-0.83,-2.19,-2.19,-2.19
207.28,0.40,2.59,0.39,2.60,-2.60,-1.92,-0.81,-2.20,-2.20,-2.19
209.35,0.34,2.55,0.34,2.55,-2.55,-1.85,-0.78,-2.21,-2.21,-2.21
211.44,0.28,2.51,0.28,2.50,-2.50,-1.78,-0.76,-2.23,-2.23,-2.23
213.56,0.21,2.45,0.21,2.45,-2.45,-1.71,-0.74,-2.24,-2.24,-2.24
215.69,0.14,2.38,0.15,2.40,-2.40,-1.64,-0.72,-2.26,-2.25,-2.24
217.85,0.07,2.33,0.08,2.34,-2.34,-1.57,-0.70,-2.28,-2.26,-2.26
220.03,0.02,2.29,0.02,2.29,-2.29,-1.50,-0.68,-2.27,-2.27,-2.27
222.23,-0.04,2.25,-0.05,2.23,-2.23,-1.44,-0.66,-2.28,-2.28,-2.29
224.45,-0.11,2.18,-0.12,2.18,-2.18,-1.38,-0.64,-2.29,-2.30,-2.29
226.70,-0.20,2.11,-0.20,2.11,-2.11,-1.32,-0.62,-2.32,-2.31,-2.31
228.96,-0.29,2.03,-0.28,2.05,-2.05,-1.26,-0.60,-2.34,-2.33,-2.32
231.25,-0.36,1.97,-0.37,1.97,-1.97,-1.20,-0.58,-2.34,-2.34,-2.33
233.57,-0.46,1.89,-0.46,1.90,-1.90,-1.14,-0.56,-2.36,-2.36,-2.35
235.90,-0.57,1.79,-0.56,1.81,-1.81,-1.09,-0.54,-2.38,-2.37,-2.36
238.26,-0.65,1.73,-0.66,1.72,-1.72,-1.03,-0.53,-2.38,-2.38,-2.38
240.64,-0.75,1.65,-0.77,1.62,-1.62,-0.98,-0.51,-2.38,-2.40,-2.40
243.05,-0.85,1.56,-0.89,1.51,-1.51,-0.93,-0.49,-2.37,-2.41,-2.41
245.48,-0.99,1.43,-1.02,1.40,-1.40,-0.88,-0.47,-2.39,-2.42,-2.42
247.93,-1.17,1.26,-1.15,1.27,-1.27,-0.83,-0.45,-2.45,-2.42,-2.43
250.41,-1.28,1.16,-1.29,1.14,-1.14,-0.78,-0.43,-2.42,-2.43,-2.44
252.92,-1.46,0.97,-1.44,0.99,-0.99,-0.73,-0.41,-2.45,-2.43,-2.43
255.45,-1.59,0.84,-1.59,0.83,-0.83,-0.68,-0.40,-2.43,-2.43,-2.43
258.00,-1.72,0.70,-1.75,0.67,-0.67,-0.63,-0.38,-2.40,-2.42,-2.42
260.58,-1.90,0.52,-1.91,0.50,-0.50,-0.58,-0.36,-2.41,-2.42,-2.42
263.19,-2.06,0.35,-2.08,0.32,-0.32,-0.53,-0.34,-2.39,-2.41,-2.41
265.82,-2.27,0.13,-2.26,0.14,-0.14,-0.48,-0.32,-2.41,-2.40,-2.40
268.48,-2.43,-0.05,-2.43,-0.05,0.05,-0.43,-0.30,-2.39,-2.38,-2.38
271.16,-2.59,-0.23,-2.61,-0.24,0.24,-0.37,-0.28,-2.35,-2.37,-2.36
273.87,-2.81,-0.46,-2.78,-0.43,0.43,-0.32,-0.26,-2.38,-2.35,-2.35
276.61,-2.97,-0.65,-2.96,-0.62,0.62,-0.27,-0.24,-2.35,-2.34,-2.32
279.38,-3.12,-0.80,-3.14,-0.82,0.82,-0.21,-0.22,-2.30,-2.32,-2.32
282.17,-3.29,-0.99,-3.32,-1.01,1.01,-0.15,-0.20,-2.28,-2.31,-2.30
284.99,-3.45,-1.16,-3.50,-1.21,1.21,-0.08,-0.18,-2.25,-2.29,-2.29
287.84,-3.67,-1.40,-3.67,-1.39,1.39,-0.02,-0.16,-2.28,-2.27,-2.27
290.72,-3.83,-1.58,-3.83,-1.57,1.57,0.05,-0.13,-2.26,-2.25,-2.25
293.63,-3.98,-1.74,-3.98,-1.74,1.74,0.13,-0.11,-2.24,-2.24,-2.24
296.57,-4.13,-1.92,-4.12,-1.91,1.91,0.21,-0.09,-2.23,-2.22,-2.21
299.53,-4.28,-2.08,-4.26,-2.06,2.06,0.29,-0.07,-2.22,-2.20,-2.20
302.53,-4.41,-2.22,-4.38,-2.20,2.20,0.39,-0.05,-2.21,-2.18,-2.19
305.55,-4.52,-2.36,-4.49,-2.33,2.33,0.49,-0.02,-2.19,-2.16,-2.16
308.61,-4.61,-2.47,-4.59,-2.45,2.45,0.60,-0.00,-2.16,-2.14,-2.14
311.69,-4.69,-2.58,-4.67,-2.56,2.56,0.72,0.02,-2.14,-2.11,-2.11
314.81,-4.74,-2.67,-4.74,-2.65,2.65,0.85,0.05,-2.09,-2.09,-2.07
317.96,-4.80,-2.74,-4.80,-2.73,2.73,0.99,0.07,-2.08,-2.07,-2.06
321.14,-4.84,-2.80,-4.84,-2.79,2.79,1.14,0.09,-2.05,-2.05,-2.04
324.35,-4.87,-2.85,-4.87,-2.85,2.85,1.31,0.12,-2.02,-2.02,-2.02
327.59,-4.89,-2.89,-4.90,-2.90,2.90,1.50,0.14,-2.00,-2.00,-2.00
330.87,-4.90,-2.92,-4.91,-2.94,2.94,1.69,0.17,-1.97,-1.98,-1.98
334.18,-4.90,-2.95,-4.92,-2.97,2.97,1.90,0.19,-1.94,-1.95,-1.95
337.52,-4.91,-2.98,-4.92,-2.99,2.99,2.12,0.22,-1.92,-1.93,-1.93
340.90,-4.90,-2.99,-4.92,-3.01,3.01,2.35,0.24,-1.89,-1.91,-1.91
344.30,-4.89,-3.01,-4.91,-3.03,3.03,2.58,0.27,-1.86,-1.88,-1.88
347.75,-4.88,-3.02,-4.90,-3.04,3.04,2.80,0.29,-1.84,-1.86,-1.86
351.23,-4.86,-3.03,-4.88,-3.04,3.04,2.99,0.32,-1.82,-1.83,-1.83
354.74,-4.85,-3.05,-4.85,-3.04,3.04,3.16,0.35,-1.81,-1.81,-1.80
358.28,-4.82,-3.03,-4.82,-3.04,3.04,3.27,0.37,-1.79,-1.79,-1.79
361.87,-4.79,-3.03,-4.78,-3.02,3.02,3.34,0.40,-1.77,-1.76,-1.76
365.49,-4.75,-3.02,-4.74,-3.00,3.00,3.34,0.43,-1.75,-1.74,-1.73
369.14,-4.70,-2.98,-4.69,-2.98,2.98,3.28,0.46,-1.73,-1.71,-1.72
372.83,-4.65,-2.96,-4.63,-2.94,2.94,3.16,0.48,-1.71,-1.69,-1.69
376.56,-4.57,-2.90,-4.57,-2.90,2.90,3.01,0.51,-1.67,-1.67,-1.67
380.33,-4.49,-2.85,-4.50,-2.85,2.85,2.81,0.54,-1.65,-1.65,-1.64
384.13,-4.42,-2.79,-4.42,-2.79,2.79,2.60,0.57,-1.64,-1.63,-1.63
387.97,-4.33,-2.72,-4.33,-2.72,2.72,2.38,0.60,-1.61,-1.61,-1.61
391.85,-4.23,-2.63,-4.24,-2.64,2.64,2.16,0.63,-1.59,-1.60,-1.60
395.77,-4.14,-2.57,-4.14,-2.56,2.56,1.95,0.66,-1.59,-1.58,-1.57
399.73,-4.03,-2.47,-4.04,-2.47,2.47,1.75,0.69,-1.57,-1.57,-1.56
403.72,-3.93,-2.37,-3.94,-2.37,2.37,1.56,0.71,-1.56,-1.56,-1.56
407.76,-3.83,-2.28,-3.83,-2.27,2.27,1.39,0.74,-1.56,-1.56,-1.55
411.84,-3.72,-2.18,-3.72,-2.17,2.17,1.23,0.77,-1.56,-1.55,-1.54
415.96,-3.60,-2.05,-3.61,-2.06,2.06,1.09,0.80,-1.55,-1.55,-1.55
420.12,-3.48,-1.93,-3.49,-1.94,1.94,0.95,0.83,-1.54,-1.55,-1.55
424.32,-3.37,-1.82,-3.38,-1.83,1.83,0.83,0.85,-1.54,-1.55,-1.55
428.56,-3.26,-1.71,-3.27,-1.71,1.71,0.72,0.88,-1.55,-1.55,-1.55
432.85,-3.15,-1.59,-3.15,-1.60,1.60,0.63,0.90,-1.56,-1.56,-1.56
437.18,-3.02,-1.46,-3.04,-1.48,1.48,0.54,0.92,-1.54,-1.56,-1.56
441.55,-2.93,-1.37,-2.92,-1.36,1.36,0.46,0.94,-1.57,-1.56,-1.56
445.96,-2.81,-1.24,-2.81,-1.24,1.24,0.38,0.96,-1.57,-1.57,-1.57
450.42,-2.69,-1.12,-2.70,-1.13,1.13,0.31,0.98,-1.57,-1.57,-1.57
454.93,-2.58,-1.01,-2.58,-1.01,1.01,0.25,1.00,-1.57,-1.57,-1.57
459.48,-2.46,-0.88,-2.47,-0.90,0.90,0.19,1.01,-1.57,-1.57,-1.58
464.07,-2.35,-0.78,-2.36,-0.78,0.78,0.14,1.02,-1.57,-1.58,-1.57
468.71,-2.26,-0.69,-2.24,-0.67,0.67,0.09,1.03,-1.60,-1.58,-1.57
