frequency,raw,error,smoothed,error_smoothed,equalization,parametric_eq,fixed_band_eq,equalized_raw,equalized_smoothed,target
20.00,-13.04,-12.67,-13.04,-12.67,12.67,12.58,4.32,-0.37,-0.37,-0.37
20.20,-12.91,-12.63,-12.91,-12.62,12.63,12.49,4.44,-0.29,-0.28,-0.28
20.40,-12.77,-12.57,-12.78,-12.57,12.58,12.40,4.55,-0.20,-0.20,-0.20
20.61,-12.65,-12.51,-12.64,-12.52,12.52,12.31,4.67,-0.13,-0.12,-0.13
20.81,-12.50,-12.46,-12.51,-12.46,12.46,12.22,4.79,-0.04,-0.05,-0.04
21.02,-12.37,-12.41,-12.37,-12.40,12.39,12.12,4.92,0.02,0.03,0.04
21.23,-12.23,-12.33,-12.23,-12.33,12.32,12.03,5.05,0.09,0.09,0.10
21.44,-12.09,-12.25,-12.10,-12.25,12.25,11.93,5.18,0.16,0.15,0.16
21.66,-11.96,-12.17,-11.96,-12.17,12.17,11.83,5.32,0.20,0.21,0.21
21.87,-11.82,-12.08,-11.82,-12.08,12.08,11.74,5.46,0.26,0.26,0.26
22.09,-11.68,-11.99,-11.68,-11.99,11.99,11.64,5.61,0.31,0.31,0.31
22.31,-11.54,-11.90,-11.54,-11.90,11.90,11.54,5.75,0.36,0.36,0.36
22.54,-11.41,-11.80,-11.41,-11.80,11.80,11.44,5.91,0.40,0.40,0.40
22.76,-11.27,-11.71,-11.27,-11.71,11.70,11.34,6.06,0.43,0.43,0.44
22.99,-11.13,-11.60,-11.13,-11.60,11.61,11.24,6.22,0.47,0.47,0.47
23.22,-10.99,-11.50,-10.99,-11.50,11.51,11.14,6.39,0.51,0.51,0.51
23.45,-10.85,-11.40,-10.85,-11.40,11.41,11.04,6.55,0.55,0.55,0.55
23.69,-10.72,-11.30,-10.71,-11.30,11.30,10.93,6.73,0.59,0.59,0.59
23.92,-10.57,-11.20,-10.57,-11.21,11.20,10.83,6.90,0.63,0.63,0.63
24.16,-10.43,-11.11,-10.43,-11.10,11.10,10.73,7.08,0.66,0.66,0.68
24.40,-10.29,-11.00,-10.29,-11.00,10.99,10.63,7.26,0.70,0.70,0.71
24.65,-10.15,-10.88,-10.15,-10.89,10.89,10.52,7.45,0.73,0.73,0.73
24.89,-10.01,-10.77,-10.01,-10.77,10.78,10.42,7.64,0.77,0.77,0.76
25.14,-9.87,-10.67,-9.87,-10.67,10.67,10.32,7.83,0.80,0.80,0.80
25.39,-9.73,-10.56,-9.74,-10.57,10.57,10.21,8.02,0.84,0.83,0.83
25.65,-9.60,-10.47,-9.60,-10.46,10.46,10.11,8.22,0.85,0.86,0.87
25.91,-9.47,-10.35,-9.46,-10.35,10.35,10.01,8.42,0.89,0.89,0.89
26.16,-9.32,-10.24,-9.32,-10.25,10.25,9.90,8.62,0.92,0.92,0.92
26.43,-9.19,-10.14,-9.18,-10.14,10.14,9.80,8.82,0.95,0.96,0.96
26.69,-9.04,-10.03,-9.04,-10.03,10.03,9.69,9.02,0.99,0.99,0.99
26.96,-8.90,-9.92,-8.91,-9.93,9.93,9.59,9.22,1.02,1.02,1.02
27.23,-8.77,-9.82,-8.77,-9.82,9.82,9.48,9.42,1.04,1.05,1.05
27.50,-8.63,-9.71,-8.64,-9.71,9.71,9.37,9.61,1.08,1.08,1.08
27.77,-8.50,-9.60,-8.50,-9.60,9.60,9.27,9.80,1.10,1.10,1.10
28.05,-8.36,-9.50,-8.36,-9.50,9.50,9.16,9.98,1.14,1.13,1.14
28.33,-8.23,-9.39,-8.23,-9.39,9.39,9.06,10.15,1.16,1.16,1.16
28.62,-8.10,-9.28,-8.10,-9.29,9.29,8.95,10.32,1.19,1.19,1.19
28.90,-7.96,-9.19,-7.96,-9.18,9.18,8.84,10.47,1.22,1.22,1.23
29.19,-7.82,-9.07,-7.83,-9.08,9.08,8.74,10.61,1.26,1.26,1.25
29.48,-7.69,-8.99,-7.69,-8.98,8.98,8.63,10.74,1.29,1.29,1.30
29.78,-7.56,-8.87,-7.56,-8.88,8.88,8.52,10.85,1.32,1.32,1.31
30.08,-7.44,-8.77,-7.44,-8.78,8.78,8.42,10.94,1.35,1.34,1.34
30.38,-7.31,-8.68,-7.32,-8.68,8.68,8.31,11.01,1.37,1.37,1.37
30.68,-7.19,-8.59,-7.19,-8.59,8.58,8.20,11.06,1.39,1.39,1.40
30.99,-7.07,-8.49,-7.07,-8.49,8.49,8.10,11.09,1.41,1.42,1.42
31.30,-6.94,-8.38,-6.95,-8.39,8.39,7.99,11.10,1.44,1.44,1.44
31.61,-6.82,-8.29,-6.83,-8.29,8.29,7.88,11.09,1.47,1.46,1.47
31.93,-6.70,-8.19,-6.70,-8.19,8.19,7.78,11.05,1.49,1.49,1.49
32.24,-6.58,-8.09,-6.58,-8.09,8.09,7.67,10.99,1.51,1.51,1.51
32.57,-6.45,-7.99,-6.46,-7.99,7.99,7.56,10.92,1.54,1.54,1.54
32.89,-6.33,-7.89,-6.33,-7.89,7.89,7.46,10.82,1.56,1.56,1.56
33.22,-6.21,-7.79,-6.21,-7.79,7.79,7.35,10.71,1.58,1.58,1.58
33.55,-6.09,-7.69,-6.09,-7.69,7.69,7.25,10.58,1.60,1.60,1.60
33.89,-5.98,-7.59,-5.98,-7.59,7.59,7.14,10.43,1.61,1.61,1.61
34.23,-5.86,-7.49,-5.87,-7.49,7.49,7.04,10.28,1.63,1.63,1.63
34.57,-5.75,-7.39,-5.75,-7.39,7.39,6.93,10.11,1.64,1.64,1.64
34.92,-5.64,-7.29,-5.64,-7.29,7.29,6.83,9.94,1.64,1.65,1.65
35.27,-5.52,-7.19,-5.53,-7.18,7.19,6.73,9.75,1.66,1.66,1.67
35.62,-5.41,-7.07,-5.41,-7.08,7.08,6.63,9.57,1.67,1.66,1.66
35.97,-5.30,-6.97,-5.30,-6.97,6.97,6.52,9.38,1.67,1.67,1.67
36.33,-5.19,-6.88,-5.19,-6.87,6.86,6.42,9.18,1.67,1.68,1.69
36.70,-5.07,-6.75,-5.08,-6.76,6.76,6.32,8.98,1.68,1.68,1.68
37.06,-4.96,-6.64,-4.96,-6.64,6.65,6.22,8.79,1.68,1.68,1.68
37.43,-4.85,-6.53,-4.85,-6.53,6.54,6.12,8.59,1.68,1.68,1.68
37.81,-4.74,-6.42,-4.75,-6.42,6.43,6.02,8.39,1.68,1.68,1.68
38.19,-4.64,-6.32,-4.64,-6.32,6.32,5.93,8.20,1.67,1.68,1.68
38.57,-4.53,-6.21,-4.53,-6.21,6.21,5.83,8.01,1.67,1.67,1.68
38.95,-4.42,-6.10,-4.43,-6.10,6.10,5.73,7.82,1.68,1.67,1.68
39.34,-4.32,-5.98,-4.32,-5.99,5.99,5.64,7.63,1.67,1.67,1.66
39.74,-4.22,-5.88,-4.22,-5.88,5.88,5.54,7.44,1.66,1.66,1.66
40.14,-4.12,-5.77,-4.12,-5.77,5.77,5.45,7.26,1.65,1.65,1.65
40.54,-4.02,-5.67,-4.02,-5.67,5.66,5.36,7.09,1.64,1.64,1.65
40.94,-3.91,-5.55,-3.92,-5.56,5.56,5.26,6.91,1.65,1.64,1.64
41.35,-3.82,-5.46,-3.82,-5.45,5.46,5.17,6.74,1.63,1.64,1.64
41.76,-3.72,-5.35,-3.72,-5.35,5.36,5.08,6.58,1.63,1.63,1.63
42.18,-3.63,-5.25,-3.64,-5.25,5.26,4.99,6.42,1.62,1.62,1.62
42.60,-3.55,-5.16,-3.55,-5.16,5.16,4.91,6.26,1.61,1.61,1.61
43.03,-3.46,-5.07,-3.46,-5.07,5.06,4.82,6.11,1.60,1.60,1.61
43.46,-3.38,-4.98,-3.38,-4.97,4.97,4.73,5.96,1.59,1.59,1.60
43.90,-3.29,-4.87,-3.30,-4.88,4.88,4.65,5.81,1.58,1.58,1.58
44.33,-3.22,-4.78,-3.22,-4.79,4.79,4.56,5.67,1.57,1.56,1.56
44.78,-3.15,-4.70,-3.15,-4.70,4.70,4.48,5.53,1.55,1.55,1.55
45.23,-3.07,-4.61,-3.07,-4.61,4.61,4.40,5.40,1.54,1.54,1.54
45.68,-2.99,-4.52,-3.00,-4.53,4.52,4.31,5.27,1.53,1.53,1.53
46.13,-2.92,-4.44,-2.92,-4.44,4.44,4.23,5.14,1.52,1.52,1.52
46.60,-2.84,-4.36,-2.84,-4.36,4.36,4.16,5.02,1.51,1.51,1.52
47.06,-2.76,-4.27,-2.77,-4.27,4.27,4.08,4.90,1.51,1.51,1.51
47.53,-2.69,-4.19,-2.69,-4.20,4.19,4.00,4.78,1.50,1.50,1.50
48.01,-2.62,-4.12,-2.62,-4.12,4.12,3.92,4.67,1.49,1.49,1.50
48.49,-2.56,-4.05,-2.56,-4.05,4.04,3.85,4.56,1.48,1.48,1.49
48.97,-2.49,-3.97,-2.49,-3.97,3.97,3.77,4.46,1.48,1.48,1.48
49.46,-2.43,-3.89,-2.44,-3.90,3.90,3.70,4.35,1.47,1.47,1.46
49.96,-2.38,-3.83,-2.38,-3.84,3.84,3.63,4.25,1.46,1.46,1.45
50.46,-2.33,-3.79,-2.33,-3.78,3.79,3.55,4.16,1.46,1.46,1.46
50.96,-2.28,-3.74,-2.29,-3.74,3.74,3.48,4.06,1.46,1.46,1.46
51.47,-2.24,-3.69,-2.24,-3.69,3.70,3.41,3.97,1.45,1.46,1.45
51.99,-2.20,-3.65,-2.21,-3.65,3.66,3.34,3.88,1.45,1.45,1.45
52.51,-2.17,-3.62,-2.17,-3.62,3.62,3.28,3.79,1.45,1.45,1.45
53.03,-2.14,-3.59,-2.14,-3.59,3.58,3.21,3.71,1.44,1.44,1.45
53.56,-2.11,-3.56,-2.11,-3.56,3.55,3.14,3.62,1.43,1.44,1.45
54.10,-2.07,-3.51,-2.08,-3.52,3.51,3.08,3.54,1.44,1.43,1.44
54.64,-2.04,-3.47,-2.04,-3.47,3.47,3.01,3.46,1.43,1.43,1.43
55.18,-2.01,-3.43,-2.01,-3.43,3.43,2.95,3.38,1.42,1.42,1.42
55.74,-1.98,-3.38,-1.99,-3.39,3.40,2.89,3.30,1.41,1.41,1.40
56.29,-1.96,-3.36,-1.96,-3.35,3.36,2.82,3.23,1.40,1.40,1.40
56.86,-1.94,-3.32,-1.94,-3.32,3.32,2.76,3.15,1.38,1.38,1.38
57.42,-1.92,-3.28,-1.92,-3.29,3.29,2.70,3.08,1.36,1.36,1.36
58.00,-1.90,-3.25,-1.90,-3.25,3.25,2.64,3.00,1.35,1.35,1.35
58.58,-1.88,-3.21,-1.88,-3.22,3.22,2.58,2.93,1.33,1.33,1.33
59.16,-1.86,-3.18,-1.86,-3.18,3.18,2.52,2.86,1.31,1.31,1.32
59.76,-1.84,-3.14,-1.84,-3.14,3.13,2.46,2.79,1.29,1.29,1.30
60.35,-1.82,-3.09,-1.82,-3.10,3.09,2.41,2.71,1.26,1.27,1.27
60.96,-1.79,-3.05,-1.79,-3.04,3.04,2.35,2.64,1.24,1.24,1.26
61.57,-1.76,-2.97,-1.77,-2.98,2.98,2.30,2.57,1.22,1.22,1.21
62.18,-1.73,-2.91,-1.74,-2.92,2.93,2.24,2.50,1.20,1.19,1.18
62.80,-1.71,-2.88,-1.71,-2.86,2.87,2.19,2.43,1.16,1.16,1.17
63.43,-1.67,-2.80,-1.67,-2.81,2.81,2.13,2.36,1.13,1.13,1.13
64.07,-1.63,-2.74,-1.63,-2.75,2.74,2.08,2.28,1.11,1.11,1.11
64.71,-1.58,-2.68,-1.58,-2.67,2.67,2.02,2.21,1.09,1.09,1.10
65.35,-1.52,-2.60,-1.53,-2.61,2.60,1.97,2.14,1.08,1.08,1.08
66.01,-1.46,-2.53,-1.46,-2.53,2.53,1.92,2.07,1.06,1.06,1.07
66.67,-1.39,-2.45,-1.39,-2.45,2.45,1.87,1.99,1.06,1.05,1.06
67.33,-1.32,-2.37,-1.32,-2.37,2.37,1.82,1.92,1.05,1.05,1.05
68.01,-1.24,-2.28,-1.24,-2.28,2.29,1.77,1.85,1.05,1.05,1.04
68.69,-1.16,-2.19,-1.17,-2.20,2.21,1.72,1.77,1.04,1.04,1.03
69.37,-1.09,-2.12,-1.09,-2.12,2.12,1.67,1.70,1.03,1.03,1.03
70.07,-1.02,-2.04,-1.02,-2.05,2.04,1.62,1.62,1.02,1.02,1.02
70.77,-0.95,-1.97,-0.95,-1.97,1.95,1.57,1.55,1.00,1.00,1.02
71.48,-0.87,-1.88,-0.87,-1.87,1.87,1.52,1.47,0.99,1.00,1.01
72.19,-0.78,-1.77,-0.78,-1.78,1.78,1.47,1.40,0.99,0.99,0.99
72.91,-0.69,-1.68,-0.70,-1.68,1.69,1.42,1.32,0.99,0.99,0.99
73.64,-0.62,-1.59,-0.62,-1.59,1.59,1.37,1.25,0.97,0.98,0.97
74.38,-0.54,-1.50,-0.54,-1.50,1.50,1.33,1.17,0.96,0.96,0.96
75.12,-0.47,-1.41,-0.47,-1.41,1.41,1.28,1.09,0.94,0.94,0.94
75.87,-0.39,-1.32,-0.39,-1.32,1.32,1.23,1.02,0.93,0.93,0.93
76.63,-0.32,-1.24,-0.32,-1.24,1.23,1.18,0.94,0.91,0.91,0.92
77.40,-0.25,-1.15,-0.25,-1.15,1.15,1.14,0.87,0.90,0.90,0.90
78.17,-0.19,-1.07,-0.19,-1.07,1.08,1.09,0.79,0.88,0.89,0.88
78.95,-0.12,-1.00,-0.12,-1.00,1.00,1.04,0.71,0.88,0.88,0.88
79.74,-0.06,-0.93,-0.07,-0.93,0.94,0.99,0.64,0.87,0.87,0.87
80.54,-0.01,-0.87,-0.01,-0.87,0.88,0.95,0.56,0.86,0.86,0.86
81.35,0.04,-0.81,0.03,-0.81,0.82,0.90,0.48,0.86,0.86,0.85
82.16,0.08,-0.76,0.08,-0.77,0.77,0.85,0.40,0.85,0.85,0.84
82.98,0.12,-0.73,0.12,-0.72,0.72,0.80,0.33,0.84,0.84,0.85
83.81,0.16,-0.68,0.16,-0.68,0.67,0.75,0.25,0.83,0.83,0.84
84.65,0.20,-0.63,0.20,-0.64,0.63,0.71,0.17,0.83,0.83,0.83
85.50,0.25,-0.59,0.25,-0.59,0.58,0.66,0.09,0.83,0.83,0.84
86.35,0.30,-0.54,0.30,-0.54,0.54,0.61,0.01,0.84,0.84,0.84
87.22,0.35,-0.48,0.34,-0.49,0.50,0.56,-0.07,0.84,0.84,0.83
88.09,0.39,-0.44,0.38,-0.44,0.45,0.51,-0.15,0.84,0.83,0.83
88.97,0.42,-0.40,0.42,-0.40,0.40,0.46,-0.23,0.82,0.82,0.82
89.86,0.45,-0.36,0.45,-0.36,0.36,0.41,-0.31,0.80,0.80,0.81
90.76,0.48,-0.31,0.48,-0.31,0.31,0.36,-0.39,0.78,0.79,0.79
91.66,0.52,-0.25,0.51,-0.25,0.26,0.30,-0.47,0.77,0.77,0.77
92.58,0.55,-0.19,0.55,-0.20,0.20,0.25,-0.55,0.75,0.74,0.74
93.51,0.58,-0.14,0.58,-0.14,0.13,0.20,-0.63,0.71,0.71,0.72
94.44,0.61,-0.08,0.61,-0.08,0.06,0.14,-0.72,0.67,0.67,0.69
95.39,0.65,-0.00,0.65,0.00,-0.01,0.09,-0.80,0.63,0.64,0.65
96.34,0.70,0.09,0.69,0.09,-0.10,0.03,-0.88,0.60,0.60,0.61
97.30,0.74,0.19,0.74,0.18,-0.18,-0.03,-0.97,0.55,0.55,0.55
98.28,0.78,0.28,0.78,0.28,-0.27,-0.08,-1.05,0.51,0.51,0.50
99.26,0.82,0.37,0.82,0.37,-0.36,-0.14,-1.13,0.46,0.46,0.45
100.25,0.85,0.46,0.84,0.46,-0.45,-0.20,-1.21,0.40,0.40,0.39
101.25,0.87,0.54,0.87,0.54,-0.53,-0.27,-1.30,0.34,0.33,0.33
102.27,0.88,0.61,0.88,0.61,-0.61,-0.33,-1.38,0.26,0.27,0.27
103.29,0.90,0.69,0.90,0.69,-0.69,-0.39,-1.46,0.21,0.21,0.21
104.32,0.92,0.76,0.91,0.76,-0.77,-0.46,-1.54,0.15,0.15,0.16
105.37,0.93,0.84,0.93,0.84,-0.84,-0.53,-1.62,0.09,0.09,0.09
106.42,0.95,0.92,0.95,0.92,-0.91,-0.60,-1.70,0.03,0.03,0.03
107.48,0.97,0.99,0.97,0.99,-0.99,-0.67,-1.77,-0.02,-0.02,-0.02
108.56,0.99,1.07,0.98,1.07,-1.06,-0.74,-1.85,-0.07,-0.08,-0.08
109.64,1.00,1.14,1.00,1.13,-1.14,-0.82,-1.92,-0.14,-0.14,-0.14
110.74,1.01,1.20,1.01,1.20,-1.21,-0.89,-1.99,-0.20,-0.20,-0.19
111.85,1.04,1.27,1.03,1.28,-1.29,-0.97,-2.06,-0.25,-0.25,-0.23
112.97,1.07,1.37,1.07,1.36,-1.37,-1.05,-2.12,-0.30,-0.30,-0.30
114.10,1.10,1.44,1.10,1.44,-1.44,-1.14,-2.18,-0.35,-0.34,-0.34
115.24,1.14,1.53,1.13,1.52,-1.52,-1.22,-2.24,-0.39,-0.39,-0.39
116.39,1.16,1.60,1.16,1.60,-1.60,-1.31,-2.29,-0.44,-0.44,-0.44
117.55,1.19,1.67,1.19,1.68,-1.67,-1.39,-2.34,-0.49,-0.48,-0.48
118.73,1.23,1.75,1.23,1.75,-1.74,-1.48,-2.38,-0.52,-0.52,-0.52
119.92,1.27,1.82,1.26,1.81,-1.81,-1.58,-2.42,-0.54,-0.55,-0.55
121.12,1.29,1.87,1.29,1.87,-1.86,-1.67,-2.45,-0.57,-0.57,-0.58
122.33,1.30,1.91,1.30,1.92,-1.91,-1.76,-2.48,-0.61,-0.60,-0.61
123.55,1.32,1.96,1.31,1.95,-1.95,-1.86,-2.50,-0.63,-0.63,-0.64
124.79,1.32,1.99,1.32,1.98,-1.98,-1.96,-2.52,-0.67,-0.66,-0.67
126.03,1.32,2.01,1.31,2.01,-2.01,-2.06,-2.53,-0.69,-0.70,-0.69
127.29,1.31,2.03,1.31,2.03,-2.04,-2.15,-2.54,-0.73,-0.73,-0.72
128.57,1.30,2.06,1.30,2.05,-2.06,-2.25,-2.54,-0.77,-0.76,-0.76
129.85,1.30,2.08,1.30,2.08,-2.09,-2.35,-2.54,-0.79,-0.79,-0.78
131.15,1.30,2.11,1.30,2.11,-2.11,-2.45,-2.53,-0.82,-0.82,-0.81
132.46,1.30,2.15,1.30,2.14,-2.14,-2.54,-2.52,-0.84,-0.84,-0.85
133.79,1.30,2.17,1.30,2.17,-2.17,-2.64,-2.50,-0.87,-0.87,-0.87
135.12,1.30,2.20,1.30,2.20,-2.20,-2.73,-2.48,-0.90,-0.90,-0.90
136.48,1.30,2.23,1.30,2.23,-2.23,-2.82,-2.45,-0.94,-0.94,-0.93
137.84,1.30,2.26,1.30,2.27,-2.27,-2.90,-2.42,-0.97,-0.97,-0.96
139.22,1.30,2.31,1.30,2.30,-2.30,-2.98,-2.39,-1.00,-1.00,-1.01
140.61,1.30,2.34,1.30,2.33,-2.33,-3.05,-2.35,-1.04,-1.04,-1.04
142.02,1.30,2.36,1.30,2.37,-2.37,-3.12,-2.31,-1.07,-1.07,-1.06
143.44,1.30,2.40,1.30,2.40,-2.40,-3.18,-2.27,-1.10,-1.10,-1.10
144.87,1.30,2.44,1.30,2.44,-2.44,-3.23,-2.22,-1.14,-1.14,-1.14
146.32,1.30,2.48,1.30,2.47,-2.47,-3.28,-2.18,-1.17,-1.17,-1.18
147.78,1.30,2.51,1.30,2.51,-2.51,-3.32,-2.13,-1.21,-1.21,-1.21
149.26,1.30,2.54,1.30,2.55,-2.55,-3.34,-2.09,-1.25,-1.25,-1.24
150.75,1.30,2.59,1.30,2.58,-2.59,-3.36,-2.04,-1.29,-1.29,-1.29
152.26,1.30,2.63,1.30,2.63,-2.63,-3.37,-1.99,-1.33,-1.33,-1.33
153.78,1.30,2.66,1.30,2.67,-2.68,-3.38,-1.94,-1.38,-1.37,-1.36
155.32,1.31,2.72,1.31,2.71,-2.72,-3.37,-1.89,-1.41,-1.41,-1.41
156.88,1.32,2.76,1.31,2.76,-2.77,-3.36,-1.84,-1.45,-1.45,-1.44
158.44,1.32,2.82,1.32,2.81,-2.81,-3.33,-1.79,-1.49,-1.49,-1.50
160.03,1.32,2.86,1.32,2.86,-2.85,-3.30,-1.74,-1.53,-1.53,-1.54
161.63,1.31,2.90,1.31,2.90,-2.89,-3.27,-1.69,-1.58,-1.58,-1.59
163.24,1.30,2.93,1.29,2.92,-2.91,-3.23,-1.65,-1.62,-1.62,-1.63
164.88,1.27,2.94,1.27,2.94,-2.94,-3.19,-1.60,-1.67,-1.67,-1.67
166.53,1.25,2.96,1.24,2.96,-2.96,-3.14,-1.55,-1.71,-1.71,-1.71
168.19,1.22,2.97,1.21,2.96,-2.97,-3.09,-1.51,-1.76,-1.76,-1.75
169.87,1.18,2.97,1.19,2.97,-2.98,-3.03,-1.46,-1.81,-1.80,-1.79
171.57,1.16,2.98,1.16,2.98,-2.99,-2.98,-1.42,-1.83,-1.83,-1.82
173.29,1.14,3.00,1.13,2.99,-2.99,-2.92,-1.38,-1.86,-1.87,-1.86
175.02,1.10,3.00,1.10,3.00,-3.00,-2.87,-1.34,-1.90,-1.89,-1.90
176.77,1.07,3.00,1.07,3.00,-2.99,-2.82,-1.30,-1.93,-1.93,-1.93
178.54,1.04,3.00,1.03,3.00,-2.99,-2.77,-1.26,-1.95,-1.96,-1.96
180.32,1.00,2.99,1.00,2.99,-2.99,-2.72,-1.22,-1.99,-1.99,-1.99
182.13,0.97,2.98,0.96,2.97,-2.98,-2.68,-1.18,-2.01,-2.02,-2.01
183.95,0.92,2.95,0.92,2.96,-2.97,-2.64,-1.15,-2.05,-2.04,-2.03
185.79,0.89,2.94,0.89,2.94,-2.95,-2.60,-1.11,-2.06,-2.06,-2.05
187.65,0.87,2.94,0.86,2.93,-2.93,-2.57,-1.08,-2.07,-2.07,-2.07
189.52,0.84,2.92,0.83,2.92,-2.91,-2.54,-1.05,-2.08,-2.08,-2.08
191.42,0.80,2.90,0.80,2.90,-2.89,-2.52,-1.02,-2.09,-2.09,-2.10
193.33,0.76,2.87,0.76,2.87,-2.86,-2.51,-0.99,-2.11,-2.11,-2.11
195.27,0.71,2.83,0.71,2.84,-2.83,-2.50,-0.96,-2.13,-2.12,-2.12
197.22,0.67,2.81,0.66,2.80,-2.80,-2.50,-0.93,-2.13,-2.14,-2.14
199.19,0.61,2.77,0.61,2.76,-2.76,-2.50,-0.90,-2.16,-2.16,-2.16
201.18,0.55,2.72,0.55,2.72,-2.72,-2.51,-0.88,-2.18,-2.17,-2.17
203.19,0.50,2.67,0.50,2.68,-2.68,-2.52,-0.85,-2.19,-2.18,-2.17
205.23,0.45,2.64,0.45,2.63,-2.64,-2.54,-0.83,-2.19,-2.19,-2.19
207.28,0.40,2.59,0.40,2.59,-2.59,-2.56,-0.80,-2.19,-2.20,-2.19
209.35,0.34,2.55,0.34,2.55,-2.54,-2.57,-0.78,-2.21,-2.21,-2.21
211.44,0.28,2.51,0.27,2.50,-2.50,-2.58,-0.76,-2.22,-2.22,-2.23
213.56,0.21,2.45,0.21,2.44,-2.45,-2.58,-0.73,-2.24,-2.24,-2.24
215.69,0.14,2.38,0.14,2.39,-2.40,-2.58,-0.71,-2.26,-2.26,-2.24
217.85,0.07,2.33,0.07,2.33,-2.35,-2.56,-0.69,-2.28,-2.27,-2.26
220.03,0.02,2.29,0.02,2.29,-2.29,-2.52,-0.67,-2.27,-2.27,-2.27
222.23,-0.04,2.25,-0.05,2.24,-2.23,-2.47,-0.65,-2.27,-2.28,-2.29
224.45,-0.11,2.18,-0.12,2.18,-2.17,-2.40,-0.63,-2.28,-2.29,-2.29
226.70,-0.20,2.11,-0.20,2.11,-2.10,-2.31,-0.61,-2.31,-2.30,-2.31
228.96,-0.29,2.03,-0.28,2.04,-2.04,-2.20,-0.59,-2.33,-2.32,-2.32
231.25,-0.36,1.97,-0.38,1.96,-1.97,-2.08,-0.57,-2.33,-2.35,-2.33
233.57,-0.46,1.89,-0.47,1.88,-1.90,-1.95,-0.55,-2.36,-2.36,-2.35
235.90,-0.57,1.79,-0.56,1.80,-1.82,-1.81,-0.54,-2.39,-2.38,-2.36
238.26,-0.65,1.73,-0.66,1.73,-1.73,-1.66,-0.52,-2.38,-2.38,-2.38
240.64,-0.75,1.65,-0.75,1.65,-1.63,-1.50,-0.50,-2.38,-2.38,-2.40
243.05,-0.85,1.56,-0.87,1.54,-1.52,-1.35,-0.48,-2.38,-2.39,-2.41
245.48,-0.99,1.43,-1.00,1.43,-1.41,-1.19,-0.46,-2.40,-2.41,-2.42
247.93,-1.17,1.26,-1.15,1.28,-1.28,-1.03,-0.44,-2.46,-2.43,-2.43
250.41,-1.28,1.16,-1.31,1.13,-1.15,-0.88,-0.42,-2.43,-2.45,-2.44
252.92,-1.46,0.97,-1.45,0.99,-1.00,-0.73,-0.41,-2.47,-2.45,-2.43
255.45,-1.59,0.84,-1.59,0.84,-0.85,-0.58,-0.39,-2.44,-2.43,-2.43
258.00,-1.72,0.70,-1.74,0.69,-0.68,-0.43,-0.37,-2.40,-2.42,-2.42
260.58,-1.90,0.52,-1.90,0.52,-0.50,-0.29,-0.35,-2.41,-2.40,-2.42
263.19,-2.06,0.35,-2.08,0.34,-0.32,-0.14,-0.33,-2.39,-2.40,-2.41
265.82,-2.27,0.13,-2.25,0.15,-0.14,-0.00,-0.31,-2.41,-2.39,-2.40
268.48,-2.43,-0.05,-2.43,-0.05,0.05,0.14,-0.29,-2.39,-2.39,-2.38
271.16,-2.59,-0.23,-2.62,-0.26,0.24,0.28,-0.27,-2.36,-2.38,-2.36
273.87,-2.81,-0.46,-2.79,-0.45,0.43,0.42,-0.25,-2.38,-2.36,-2.35
276.61,-2.97,-0.65,-2.97,-0.64,0.63,0.56,-0.23,-2.35,-2.34,-2.32
279.38,-3.12,-0.80,-3.13,-0.81,0.82,0.70,-0.21,-2.30,-2.31,-2.32
282.17,-3.29,-0.99,-3.29,-0.99,1.01,0.85,-0.19,-2.28,-2.28,-2.30
284.99,-3.45,-1.16,-3.47,-1.18,1.20,0.99,-0.17,-2.25,-2.27,-2.29
287.84,-3.67,-1.40,-3.65,-1.38,1.39,1.14,-0.15,-2.29,-2.27,-2.27
290.72,-3.83,-1.58,-3.83,-1.57,1.57,1.28,-0.13,-2.27,-2.26,-2.25
293.63,-3.98,-1.74,-3.99,-1.76,1.74,1.43,-0.10,-2.24,-2.25,-2.24
296.57,-4.13,-1.92,-4.14,-1.92,1.91,1.58,-0.08,-2.22,-2.22,-2.21
299.53,-4.28,-2.08,-4.28,-2.08,2.07,1.74,-0.06,-2.21,-2.21,-2.20
302.53,-4.41,-2.22,-4.41,-2.23,2.22,1.89,-0.04,-2.19,-2.19,-2.19
305.55,-4.52,-2.36,-4.52,-2.36,2.35,2.04,-0.02,-2.17,-2.17,-2.16
308.61,-4.61,-2.47,-4.61,-2.48,2.47,2.20,0.01,-2.14,-2.14,-2.14
311.69,-4.69,-2.58,-4.69,-2.58,2.57,2.35,0.03,-2.12,-2.11,-2.11
314.81,-4.74,-2.67,-4.75,-2.67,2.66,2.50,0.05,-2.08,-2.09,-2.07
317.96,-4.80,-2.74,-4.80,-2.74,2.74,2.64,0.08,-2.07,-2.06,-2.06
321.14,-4.84,-2.80,-4.84,-2.80,2.80,2.78,0.10,-2.04,-2.04,-2.04
324.35,-4.87,-2.85,-4.87,-2.85,2.85,2.91,0.12,-2.02,-2.02,-2.02
327.59,-4.89,-2.89,-4.89,-2.89,2.89,3.02,0.15,-2.00,-2.00,-2.00
330.87,-4.90,-2.92,-4.90,-2.92,2.93,3.13,0.17,-1.98,-1.98,-1.98
334.18,-4.90,-2.95,-4.91,-2.95,2.96,3.21,0.20,-1.95,-1.95,-1.95
337.52,-4.91,-2.98,-4.91,-2.98,2.98,3.28,0.22,-1.93,-1.93,-1.93
340.90,-4.90,-2.99,-4.90,-3.00,3.00,3.33,0.25,-1.90,-1.91,-1.91
344.30,-4.89,-3.01,-4.89,-3.01,3.02,3.36,0.27,-1.88,-1.88,-1.88
347.75,-4.88,-3.02,-4.88,-3.02,3.03,3.37,0.30,-1.85,-1.85,-1.86
351.23,-4.86,-3.03,-4.87,-3.04,3.04,3.36,0.33,-1.83,-1.83,-1.83
354.74,-4.85,-3.05,-4.85,-3.04,3.04,3.33,0.35,-1.81,-1.81,-1.80
358.28,-4.82,-3.03,-4.82,-3.04,3.04,3.27,0.38,-1.78,-1.79,-1.79
361.87,-4.79,-3.03,-4.79,-3.03,3.03,3.21,0.41,-1.76,-1.76,-1.76
365.49,-4.75,-3.02,-4.75,-3.01,3.01,3.12,0.43,-1.74,-1.74,-1.73
369.14,-4.70,-2.98,-4.71,-2.99,2.98,3.03,0.46,-1.72,-1.72,-1.72
372.83,-4.65,-2.96,-4.64,-2.95,2.95,2.92,0.49,-1.70,-1.70,-1.69
376.56,-4.57,-2.90,-4.58,-2.91,2.90,2.81,0.52,-1.67,-1.67,-1.67
380.33,-4.49,-2.85,-4.50,-2.85,2.85,2.69,0.55,-1.64,-1.65,-1.64
384.13,-4.42,-2.79,-4.42,-2.79,2.79,2.56,0.58,-1.63,-1.63,-1.63
387.97,-4.33,-2.72,-4.33,-2.72,2.72,2.44,0.60,-1.61,-1.61,-1.61
391.85,-4.23,-2.63,-4.24,-2.64,2.64,2.31,0.63,-1.59,-1.59,-1.60
395.77,-4.14,-2.57,-4.14,-2.56,2.56,2.18,0.66,-1.58,-1.58,-1.57
399.73,-4.03,-2.47,-4.04,-2.47,2.47,2.06,0.69,-1.56,-1.57,-1.56
403.72,-3.93,-2.37,-3.94,-2.38,2.38,1.94,0.72,-1.56,-1.56,-1.56
407.76,-3.83,-2.28,-3.83,-2.28,2.27,1.82,0.75,-1.56,-1.56,-1.55
411.84,-3.72,-2.18,-3.72,-2.17,2.17,1.71,0.77,-1.56,-1.55,-1.54
415.96,-3.60,-2.05,-3.60,-2.06,2.06,1.60,0.80,-1.55,-1.55,-1.55
420.12,-3.48,-1.93,-3.49,-1.94,1.94,1.50,0.83,-1.54,-1.54,-1.55
424.32,-3.37,-1.82,-3.37,-1.82,1.83,1.40,0.85,-1.55,-1.55,-1.55
428.56,-3.26,-1.71,-3.26,-1.70,1.71,1.30,0.88,-1.55,-1.55,-1.55
432.85,-3.15,-1.59,-3.15,-1.59,1.59,1.21,0.90,-1.56,-1.56,-1.56
437.18,-3.02,-1.46,-3.04,-1.48,1.47,1.12,0.93,-1.55,-1.56,-1.56
441.55,-2.93,-1.37,-2.92,-1.36,1.36,1.04,0.95,-1.58,-1.57,-1.56
445.96,-2.81,-1.24,-2.81,-1.24,1.24,0.96,0.97,-1.57,-1.57,-1.57
450.42,-2.69,-1.12,-2.70,-1.13,1.13,0.88,0.98,-1.57,-1.57,-1.57
454.93,-2.58,-1.01,-2.58,-1.00,1.01,0.81,1.00,-1.57,-1.57,-1.57
459.48,-2.46,-0.88,-2.47,-0.89,0.90,0.74,1.01,-1.57,-1.57,-1.58
464.07,-2.35,-0.78,-2.36,-0.78,0.78,0.68,1.03,-1.57,-1.58,-1.57
468.71,-2.26,-0.69,-2.25,-0.67,0.67,0.61,1.03,-1.59,-1.58,-1.57
473.40,-2.13,-0.55,-2.13,-0.56,0.56,0.55,1.04,-1.58,-1.58,-1.58
