frequency,raw,error,smoothed,error_smoothed,equalization,parametric_eq,fixed_band_eq,equalized_raw,equalized_smoothed,target
20.00,-2.28,-6.77,-2.32,-6.83,6.83,7.14,1.66,4.55,4.51,4.49
20.20,-2.19,-6.72,-2.21,-6.74,6.74,7.06,1.70,4.55,4.54,4.53
20.40,-2.09,-6.65,-2.10,-6.66,6.66,6.98,1.75,4.57,4.56,4.56
20.61,-2.00,-6.59,-1.99,-6.58,6.58,6.90,1.80,4.58,4.59,4.59
20.81,-1.90,-6.52,-1.89,-6.50,6.50,6.82,1.86,4.60,4.62,4.63
21.02,-1.81,-6.47,-1.78,-6.42,6.42,6.75,1.91,4.61,4.64,4.66
21.23,-1.71,-6.38,-1.68,-6.34,6.34,6.67,1.97,4.63,4.66,4.67
21.44,-1.62,-6.31,-1.59,-6.27,6.27,6.60,2.02,4.65,4.68,4.69
21.66,-1.52,-6.23,-1.49,-6.19,6.19,6.52,2.08,4.67,4.70,4.71
21.87,-1.43,-6.15,-1.40,-6.12,6.12,6.45,2.14,4.69,4.72,4.72
22.09,-1.33,-6.07,-1.31,-6.04,6.04,6.38,2.20,4.71,4.73,4.74
22.31,-1.22,-5.96,-1.22,-5.97,5.97,6.31,2.27,4.75,4.75,4.74
22.54,-1.12,-5.87,-1.14,-5.89,5.89,6.24,2.33,4.77,4.76,4.75
22.76,-1.02,-5.78,-1.05,-5.82,5.82,6.17,2.40,4.80,4.77,4.76
22.99,-0.91,-5.67,-0.98,-5.75,5.75,6.10,2.47,4.84,4.77,4.76
23.22,-0.86,-5.63,-0.90,-5.68,5.68,6.03,2.54,4.82,4.78,4.77
23.45,-0.80,-5.58,-0.83,-5.61,5.61,5.96,2.61,4.81,4.78,4.78
23.69,-0.75,-5.54,-0.75,-5.54,5.54,5.90,2.68,4.79,4.79,4.79
23.92,-0.70,-5.50,-0.68,-5.47,5.47,5.83,2.76,4.77,4.79,4.80
24.16,-0.64,-5.44,-0.60,-5.40,5.40,5.77,2.83,4.76,4.80,4.81
24.40,-0.57,-5.38,-0.53,-5.33,5.33,5.70,2.91,4.76,4.80,4.81
24.65,-0.51,-5.31,-0.47,-5.27,5.27,5.64,2.99,4.76,4.80,4.80
24.89,-0.45,-5.25,-0.41,-5.21,5.21,5.58,3.07,4.76,4.80,4.80
25.14,-0.36,-5.16,-0.34,-5.14,5.14,5.51,3.15,4.78,4.80,4.80
25.39,-0.25,-5.05,-0.26,-5.07,5.07,5.45,3.23,4.82,4.80,4.80
25.65,-0.15,-4.95,-0.18,-4.98,4.98,5.39,3.31,4.83,4.80,4.80
25.91,-0.04,-4.83,-0.09,-4.89,4.89,5.33,3.39,4.85,4.80,4.79
26.16,0.03,-4.77,-0.00,-4.80,4.80,5.27,3.47,4.83,4.80,4.80
26.43,0.07,-4.73,0.09,-4.71,4.71,5.21,3.54,4.78,4.80,4.80
26.69,0.12,-4.67,0.17,-4.62,4.62,5.15,3.62,4.74,4.79,4.79
26.96,0.16,-4.63,0.25,-4.54,4.54,5.09,3.70,4.70,4.79,4.79
27.23,0.28,-4.51,0.33,-4.46,4.46,5.03,3.78,4.74,4.79,4.79
27.50,0.42,-4.37,0.40,-4.38,4.38,4.97,3.85,4.80,4.78,4.79
27.77,0.56,-4.22,0.47,-4.31,4.31,4.91,3.92,4.87,4.78,4.78
28.05,0.67,-4.11,0.53,-4.25,4.25,4.86,3.99,4.92,4.78,4.78
28.33,0.67,-4.10,0.60,-4.18,4.18,4.80,4.05,4.85,4.78,4.77
28.62,0.68,-4.09,0.66,-4.12,4.12,4.74,4.11,4.80,4.78,4.77
28.90,0.68,-4.09,0.72,-4.06,4.06,4.69,4.17,4.74,4.77,4.77
29.19,0.72,-4.04,0.78,-3.99,3.99,4.63,4.22,4.71,4.77,4.76
29.48,0.79,-3.98,0.84,-3.92,3.92,4.58,4.27,4.71,4.76,4.77
29.78,0.86,-3.91,0.90,-3.86,3.86,4.52,4.31,4.72,4.76,4.77
30.08,0.93,-3.84,0.96,-3.79,3.79,4.47,4.35,4.72,4.76,4.76
30.38,1.00,-3.75,1.02,-3.73,3.73,4.42,4.38,4.73,4.75,4.75
30.68,1.07,-3.68,1.08,-3.67,3.67,4.36,4.41,4.74,4.75,4.75
30.99,1.14,-3.60,1.14,-3.60,3.60,4.31,4.42,4.74,4.74,4.74
31.30,1.21,-3.53,1.20,-3.54,3.54,4.26,4.44,4.75,4.74,4.74
31.61,1.28,-3.45,1.26,-3.47,3.47,4.21,4.45,4.75,4.73,4.73
31.93,1.35,-3.37,1.33,-3.40,3.40,4.15,4.45,4.75,4.72,4.72
32.24,1.42,-3.29,1.39,-3.33,3.33,4.10,4.44,4.75,4.72,4.71
32.57,1.49,-3.22,1.45,-3.27,3.27,4.05,4.43,4.76,4.71,4.71
32.89,1.56,-3.14,1.50,-3.20,3.20,4.00,4.42,4.76,4.71,4.70
33.22,1.58,-3.12,1.56,-3.14,3.14,3.95,4.40,4.72,4.70,4.70
33.55,1.59,-3.11,1.62,-3.08,3.08,3.90,4.37,4.67,4.69,4.70
33.89,1.60,-3.09,1.67,-3.02,3.02,3.85,4.34,4.62,4.69,4.69
34.23,1.65,-3.04,1.72,-2.97,2.97,3.81,4.31,4.62,4.68,4.69
34.57,1.73,-2.95,1.77,-2.91,2.91,3.76,4.27,4.64,4.68,4.68
34.92,1.80,-2.87,1.82,-2.85,2.85,3.71,4.23,4.65,4.67,4.67
35.27,1.88,-2.79,1.87,-2.79,2.79,3.66,4.19,4.67,4.67,4.67
35.62,1.96,-2.70,1.92,-2.74,2.74,3.62,4.14,4.70,4.66,4.65
35.97,2.03,-2.62,1.98,-2.68,2.68,3.57,4.09,4.71,4.65,4.65
36.33,2.04,-2.61,2.03,-2.62,2.62,3.52,4.05,4.66,4.65,4.65
36.70,2.05,-2.59,2.07,-2.56,2.56,3.48,4.00,4.61,4.64,4.64
37.06,2.06,-2.57,2.12,-2.51,2.51,3.43,3.95,4.57,4.63,4.63
37.43,2.15,-2.47,2.16,-2.46,2.46,3.39,3.90,4.61,4.62,4.62
37.81,2.24,-2.38,2.20,-2.41,2.41,3.34,3.85,4.65,4.61,4.62
38.19,2.28,-2.32,2.23,-2.38,2.38,3.30,3.80,4.66,4.61,4.60
38.57,2.28,-2.32,2.25,-2.35,2.35,3.26,3.75,4.63,4.60,4.60
38.95,2.28,-2.31,2.26,-2.33,2.33,3.22,3.71,4.61,4.59,4.59
39.34,2.28,-2.30,2.27,-2.31,2.31,3.17,3.66,4.59,4.58,4.58
39.74,2.28,-2.28,2.28,-2.30,2.30,3.13,3.62,4.58,4.58,4.56
40.14,2.28,-2.28,2.28,-2.29,2.29,3.09,3.57,4.57,4.57,4.56
40.54,2.28,-2.28,2.28,-2.28,2.28,3.05,3.53,4.56,4.55,4.56
40.94,2.28,-2.27,2.28,-2.26,2.26,3.01,3.50,4.54,4.54,4.55
41.35,2.28,-2.25,2.28,-2.24,2.24,2.97,3.46,4.52,4.52,4.53
41.76,2.28,-2.24,2.28,-2.23,2.23,2.93,3.43,4.51,4.50,4.52
42.18,2.28,-2.22,2.28,-2.21,2.21,2.89,3.39,4.49,4.48,4.50
42.60,2.28,-2.19,2.29,-2.17,2.17,2.86,3.37,4.45,4.46,4.47
43.03,2.28,-2.17,2.31,-2.12,2.12,2.82,3.34,4.40,4.43,4.45
43.46,2.28,-2.14,2.34,-2.07,2.07,2.78,3.32,4.35,4.41,4.42
43.90,2.28,-2.10,2.37,-2.01,2.01,2.75,3.29,4.29,4.38,4.38
44.33,2.36,-1.99,2.41,-1.95,1.95,2.71,3.28,4.31,4.35,4.35
44.78,2.46,-1.85,2.44,-1.88,1.88,2.68,3.26,4.34,4.32,4.31
45.23,2.51,-1.77,2.49,-1.81,1.81,2.64,3.25,4.32,4.29,4.28
45.68,2.51,-1.74,2.53,-1.74,1.74,2.61,3.24,4.25,4.27,4.25
46.13,2.54,-1.69,2.57,-1.67,1.67,2.58,3.23,4.21,4.24,4.23
46.60,2.65,-1.57,2.61,-1.61,1.61,2.54,3.22,4.26,4.22,4.22
47.06,2.74,-1.45,2.65,-1.56,1.56,2.51,3.22,4.30,4.20,4.19
47.53,2.74,-1.44,2.68,-1.51,1.51,2.48,3.22,4.25,4.19,4.18
48.01,2.74,-1.44,2.71,-1.47,1.47,2.45,3.22,4.21,4.18,4.18
48.49,2.74,-1.43,2.73,-1.44,1.44,2.43,3.22,4.18,4.17,4.17
48.97,2.74,-1.42,2.74,-1.42,1.42,2.40,3.23,4.16,4.17,4.16
49.46,2.74,-1.40,2.75,-1.41,1.41,2.37,3.24,4.15,4.16,4.14
49.96,2.74,-1.40,2.76,-1.39,1.39,2.35,3.24,4.13,4.15,4.14
50.46,2.74,-1.40,2.78,-1.37,1.37,2.32,3.25,4.11,4.15,4.14
50.96,2.74,-1.41,2.79,-1.35,1.35,2.30,3.27,4.09,4.14,4.15
51.47,2.74,-1.39,2.78,-1.34,1.34,2.28,3.28,4.08,4.12,4.13
51.99,2.74,-1.38,2.77,-1.34,1.34,2.26,3.29,4.08,4.10,4.12
52.51,2.74,-1.36,2.75,-1.33,1.33,2.24,3.30,4.07,4.08,4.10
53.03,2.74,-1.33,2.74,-1.31,1.31,2.23,3.32,4.05,4.05,4.07
53.56,2.74,-1.30,2.72,-1.30,1.30,2.21,3.33,4.04,4.02,4.04
54.10,2.74,-1.25,2.69,-1.29,1.29,2.20,3.34,4.03,3.98,3.99
54.64,2.74,-1.20,2.66,-1.28,1.28,2.19,3.36,4.02,3.94,3.94
55.18,2.70,-1.19,2.61,-1.28,1.28,2.18,3.37,3.98,3.89,3.89
55.74,2.57,-1.26,2.56,-1.28,1.28,2.18,3.38,3.85,3.84,3.83
56.29,2.44,-1.34,2.50,-1.28,1.28,2.18,3.38,3.71,3.78,3.78
56.86,2.31,-1.41,2.44,-1.28,1.28,2.18,3.39,3.59,3.72,3.72
57.42,2.28,-1.36,2.36,-1.29,1.29,2.18,3.39,3.57,3.65,3.64
58.00,2.28,-1.30,2.27,-1.32,1.32,2.19,3.39,3.60,3.59,3.58
58.58,2.15,-1.37,2.16,-1.36,1.36,2.21,3.39,3.51,3.52,3.52
59.16,2.01,-1.45,2.04,-1.42,1.42,2.23,3.38,3.43,3.46,3.46
59.76,1.88,-1.52,1.90,-1.49,1.49,2.26,3.37,3.37,3.39,3.40
60.35,1.75,-1.57,1.76,-1.57,1.57,2.29,3.36,3.32,3.32,3.32
60.96,1.61,-1.66,1.59,-1.67,1.67,2.33,3.34,3.28,3.26,3.27
61.57,1.47,-1.72,1.38,-1.81,1.81,2.39,3.31,3.28,3.20,3.19
62.18,1.27,-1.85,1.15,-1.98,1.98,2.45,3.28,3.25,3.13,3.12
62.80,0.93,-2.14,0.89,-2.19,2.19,2.52,3.25,3.11,3.08,3.07
63.43,0.62,-2.39,0.60,-2.42,2.42,2.61,3.21,3.04,3.02,3.01
64.07,0.33,-2.63,0.27,-2.69,2.69,2.72,3.17,3.03,2.96,2.96
64.71,0.06,-2.85,-0.08,-2.99,2.99,2.84,3.12,3.05,2.91,2.91
65.35,-0.29,-3.15,-0.45,-3.31,3.31,2.99,3.07,3.02,2.86,2.86
66.01,-0.69,-3.50,-0.84,-3.65,3.65,3.16,3.01,2.97,2.82,2.81
66.67,-1.21,-3.98,-1.24,-4.02,4.02,3.35,2.95,2.81,2.77,2.77
67.33,-1.72,-4.46,-1.66,-4.39,4.39,3.58,2.88,2.67,2.73,2.73
68.01,-2.20,-4.89,-2.07,-4.76,4.76,3.85,2.81,2.56,2.69,2.70
68.69,-2.44,-5.10,-2.46,-5.12,5.12,4.14,2.74,2.68,2.66,2.66
69.37,-2.76,-5.38,-2.83,-5.45,5.45,4.48,2.66,2.69,2.62,2.62
70.07,-3.14,-5.72,-3.15,-5.74,5.74,4.84,2.58,2.60,2.58,2.58
70.77,-3.47,-6.03,-3.43,-5.98,5.98,5.22,2.50,2.51,2.55,2.56
71.48,-3.72,-6.24,-3.64,-6.15,6.15,5.60,2.41,2.43,2.51,2.52
72.19,-3.92,-6.41,-3.78,-6.26,6.26,5.94,2.33,2.34,2.48,2.49
72.91,-4.08,-6.52,-3.85,-6.29,6.29,6.21,2.24,2.21,2.44,2.44
73.64,-4.10,-6.51,-3.85,-6.25,6.25,6.36,2.15,2.15,2.40,2.41
74.38,-4.04,-6.41,-3.77,-6.14,6.14,6.37,2.05,2.10,2.37,2.37
75.12,-3.88,-6.21,-3.64,-5.97,5.97,6.22,1.96,2.09,2.33,2.33
75.87,-3.60,-5.89,-3.47,-5.76,5.76,5.93,1.87,2.16,2.29,2.29
76.63,-3.28,-5.53,-3.25,-5.50,5.50,5.55,1.77,2.23,2.26,2.25
77.40,-2.90,-5.12,-2.98,-5.20,5.20,5.11,1.67,2.30,2.23,2.22
78.17,-2.49,-4.67,-2.68,-4.88,4.88,4.65,1.58,2.39,2.19,2.18
78.95,-2.16,-4.32,-2.37,-4.54,4.54,4.21,1.48,2.38,2.17,2.16
79.74,-1.87,-4.01,-2.05,-4.19,4.19,3.79,1.38,2.32,2.14,2.14
80.54,-1.60,-3.71,-1.73,-3.84,3.84,3.40,1.28,2.24,2.12,2.11
81.35,-1.34,-3.43,-1.41,-3.50,3.50,3.05,1.19,2.16,2.10,2.08
82.16,-1.08,-3.15,-1.11,-3.18,3.18,2.73,1.09,2.10,2.08,2.07
82.98,-0.82,-2.88,-0.83,-2.89,2.89,2.45,0.99,2.07,2.06,2.06
83.81,-0.55,-2.60,-0.57,-2.63,2.63,2.19,0.89,2.08,2.05,2.05
84.65,-0.32,-2.35,-0.34,-2.39,2.39,1.97,0.80,2.07,2.04,2.03
85.50,-0.17,-2.20,-0.13,-2.16,2.16,1.76,0.70,1.99,2.03,2.03
86.35,0.01,-2.01,0.07,-1.95,1.95,1.57,0.60,1.96,2.02,2.02
87.22,0.26,-1.75,0.27,-1.75,1.75,1.40,0.51,2.01,2.02,2.01
88.09,0.52,-1.48,0.46,-1.55,1.55,1.25,0.41,2.07,2.01,2.00
88.97,0.67,-1.34,0.64,-1.36,1.36,1.11,0.31,2.03,2.00,2.01
89.86,0.84,-1.16,0.82,-1.17,1.17,0.98,0.22,2.01,1.99,2.00
90.76,0.92,-1.06,0.98,-1.00,1.00,0.85,0.12,1.92,1.98,1.98
91.66,1.07,-0.90,1.14,-0.83,0.83,0.74,0.02,1.90,1.96,1.97
92.58,1.22,-0.72,1.27,-0.67,0.67,0.63,-0.07,1.89,1.95,1.94
93.51,1.42,-0.52,1.40,-0.53,0.53,0.53,-0.17,1.95,1.93,1.94
94.44,1.58,-0.33,1.52,-0.38,0.38,0.43,-0.26,1.96,1.90,1.91
95.39,1.69,-0.20,1.64,-0.24,0.24,0.34,-0.36,1.93,1.88,1.89
96.34,1.82,-0.02,1.74,-0.11,0.11,0.25,-0.45,1.93,1.85,1.84
97.30,1.82,0.01,1.83,0.01,-0.01,0.16,-0.54,1.81,1.82,1.81
98.28,1.87,0.09,1.91,0.13,-0.13,0.07,-0.64,1.74,1.79,1.78
99.26,2.02,0.28,1.99,0.24,-0.24,-0.01,-0.73,1.78,1.75,1.74
100.25,2.05,0.35,2.05,0.35,-0.35,-0.09,-0.82,1.70,1.70,1.70
101.25,2.05,0.39,2.11,0.46,-0.46,-0.17,-0.91,1.59,1.66,1.66
102.27,2.08,0.47,2.16,0.55,-0.55,-0.25,-1.00,1.53,1.61,1.61
103.29,2.20,0.65,2.19,0.64,-0.64,-0.33,-1.09,1.56,1.55,1.55
104.32,2.28,0.78,2.22,0.73,-0.73,-0.41,-1.17,1.55,1.49,1.50
105.37,2.28,0.83,2.25,0.82,-0.82,-0.49,-1.26,1.46,1.43,1.45
106.42,2.28,0.90,2.27,0.91,-0.91,-0.56,-1.34,1.37,1.36,1.38
107.48,2.28,0.98,2.29,1.00,-1.00,-0.64,-1.42,1.28,1.29,1.30
108.56,2.28,1.07,2.29,1.08,-1.08,-0.72,-1.50,1.20,1.21,1.21
109.64,2.28,1.14,2.29,1.15,-1.15,-0.80,-1.58,1.13,1.13,1.14
110.74,2.28,1.22,2.27,1.22,-1.22,-0.88,-1.65,1.06,1.05,1.06
111.85,2.28,1.30,2.26,1.29,-1.29,-0.96,-1.72,0.99,0.97,0.98
112.97,2.28,1.40,2.24,1.35,-1.35,-1.04,-1.79,0.93,0.89,0.88
114.10,2.28,1.47,2.21,1.40,-1.40,-1.12,-1.85,0.88,0.81,0.81
115.24,2.25,1.53,2.17,1.45,-1.45,-1.21,-1.91,0.80,0.73,0.72
116.39,2.12,1.48,2.14,1.49,-1.49,-1.29,-1.96,0.63,0.65,0.64
117.55,2.05,1.49,2.12,1.54,-1.54,-1.37,-2.01,0.51,0.58,0.56
118.73,2.05,1.56,2.10,1.59,-1.59,-1.46,-2.06,0.46,0.51,0.49
119.92,2.05,1.62,2.09,1.65,-1.65,-1.54,-2.10,0.40,0.44,0.43
121.12,2.05,1.68,2.08,1.70,-1.70,-1.63,-2.13,0.35,0.39,0.37
122.33,2.05,1.74,2.08,1.76,-1.76,-1.71,-2.16,0.29,0.33,0.31
123.55,2.05,1.77,2.09,1.81,-1.81,-1.80,-2.18,0.24,0.28,0.28
124.79,2.05,1.82,2.10,1.87,-1.87,-1.88,-2.20,0.18,0.23,0.23
126.03,2.05,1.86,2.12,1.93,-1.93,-1.97,-2.21,0.12,0.18,0.19
127.29,2.12,1.97,2.14,2.00,-2.00,-2.05,-2.21,0.12,0.14,0.15
128.57,2.23,2.13,2.17,2.07,-2.07,-2.13,-2.21,0.16,0.09,0.10
129.85,2.28,2.22,2.20,2.14,-2.14,-2.21,-2.21,0.14,0.05,0.06
131.15,2.28,2.26,2.22,2.21,-2.21,-2.29,-2.20,0.07,0.01,0.02
132.46,2.28,2.31,2.24,2.27,-2.27,-2.36,-2.18,0.01,-0.03,-0.03
133.79,2.28,2.34,2.27,2.34,-2.34,-2.43,-2.16,-0.06,-0.07,-0.06
135.12,2.28,2.40,2.29,2.40,-2.40,-2.50,-2.13,-0.12,-0.11,-0.12
136.48,2.28,2.44,2.30,2.46,-2.46,-2.56,-2.10,-0.18,-0.16,-0.16
137.84,2.28,2.48,2.32,2.52,-2.52,-2.62,-2.07,-0.24,-0.20,-0.20
139.22,2.28,2.54,2.32,2.57,-2.57,-2.67,-2.03,-0.29,-0.25,-0.26
140.61,2.28,2.59,2.32,2.61,-2.61,-2.72,-1.99,-0.33,-0.29,-0.31
142.02,2.28,2.63,2.31,2.65,-2.65,-2.76,-1.95,-0.37,-0.34,-0.35
143.44,2.28,2.68,2.29,2.69,-2.69,-2.80,-1.90,-0.41,-0.40,-0.40
144.87,2.28,2.73,2.27,2.72,-2.72,-2.82,-1.85,-0.44,-0.46,-0.45
146.32,2.28,2.78,2.24,2.76,-2.76,-2.84,-1.80,-0.48,-0.52,-0.50
147.78,2.23,2.78,2.20,2.79,-2.79,-2.86,-1.74,-0.56,-0.59,-0.55
149.26,2.11,2.74,2.13,2.79,-2.79,-2.86,-1.69,-0.68,-0.66,-0.63
150.75,2.05,2.76,2.04,2.77,-2.77,-2.86,-1.63,-0.72,-0.73,-0.71
152.26,2.04,2.83,1.91,2.72,-2.72,-2.85,-1.58,-0.68,-0.81,-0.79
153.78,1.90,2.77,1.77,2.66,-2.66,-2.83,-1.52,-0.76,-0.89,-0.87
155.32,1.78,2.75,1.62,2.59,-2.59,-2.81,-1.46,-0.81,-0.97,-0.97
156.88,1.60,2.66,1.47,2.52,-2.52,-2.78,-1.40,-0.92,-1.05,-1.05
158.44,1.43,2.57,1.33,2.45,-2.45,-2.74,-1.34,-1.02,-1.12,-1.14
160.03,1.31,2.53,1.20,2.39,-2.39,-2.70,-1.29,-1.08,-1.19,-1.21
161.63,1.04,2.32,1.09,2.35,-2.35,-2.65,-1.23,-1.31,-1.26,-1.28
163.24,0.78,2.12,1.01,2.33,-2.33,-2.60,-1.17,-1.55,-1.32,-1.34
164.88,0.52,1.91,0.94,2.31,-2.31,-2.55,-1.11,-1.79,-1.37,-1.39
166.53,0.50,1.93,0.89,2.30,-2.30,-2.49,-1.05,-1.80,-1.41,-1.43
168.19,0.61,2.08,0.86,2.31,-2.31,-2.43,-1.00,-1.70,-1.44,-1.47
169.87,0.74,2.23,0.86,2.32,-2.32,-2.37,-0.94,-1.58,-1.47,-1.49
171.57,0.88,2.39,0.86,2.35,-2.35,-2.30,-0.88,-1.47,-1.49,-1.50
173.29,1.05,2.56,0.87,2.37,-2.37,-2.23,-0.83,-1.32,-1.50,-1.51
175.02,1.14,2.64,0.89,2.40,-2.40,-2.16,-0.77,-1.26,-1.51,-1.50
176.77,1.14,2.65,0.91,2.43,-2.43,-2.10,-0.72,-1.29,-1.52,-1.51
178.54,1.14,2.65,0.94,2.46,-2.46,-2.03,-0.66,-1.32,-1.52,-1.51
180.32,1.06,2.57,0.96,2.48,-2.48,-1.96,-0.61,-1.43,-1.53,-1.51
182.13,0.96,2.46,0.96,2.49,-2.49,-1.89,-0.56,-1.53,-1.53,-1.50
183.95,0.91,2.42,0.93,2.47,-2.47,-1.82,-0.51,-1.56,-1.54,-1.51
185.79,0.91,2.44,0.87,2.42,-2.42,-1.75,-0.46,-1.51,-1.55,-1.53
187.65,0.75,2.30,0.78,2.34,-2.34,-1.69,-0.40,-1.59,-1.56,-1.55
189.52,0.52,2.10,0.67,2.25,-2.25,-1.62,-0.35,-1.73,-1.58,-1.58
191.42,0.46,2.06,0.55,2.15,-2.15,-1.56,-0.31,-1.69,-1.60,-1.60
193.33,0.46,2.08,0.42,2.03,-2.03,-1.49,-0.26,-1.57,-1.62,-1.62
195.27,0.35,1.99,0.29,1.93,-1.93,-1.43,-0.21,-1.58,-1.64,-1.64
197.22,0.25,1.91,0.16,1.82,-1.82,-1.37,-0.16,-1.57,-1.66,-1.66
199.19,0.09,1.79,0.03,1.71,-1.71,-1.31,-0.12,-1.62,-1.68,-1.70
201.18,-0.14,1.57,-0.10,1.60,-1.60,-1.25,-0.07,-1.74,-1.71,-1.71
203.19,-0.27,1.46,-0.24,1.49,-1.49,-1.19,-0.02,-1.76,-1.73,-1.73
205.23,-0.40,1.36,-0.38,1.38,-1.38,-1.14,0.02,-1.78,-1.75,-1.76
207.28,-0.54,1.23,-0.51,1.27,-1.27,-1.08,0.06,-1.81,-1.77,-1.77
209.35,-0.65,1.14,-0.63,1.16,-1.16,-1.03,0.11,-1.81,-1.79,-1.79
211.44,-0.81,1.01,-0.74,1.07,-1.07,-0.98,0.15,-1.88,-1.81,-1.82
213.56,-0.90,0.93,-0.87,0.96,-0.96,-0.93,0.19,-1.86,-1.83,-1.83
215.69,-0.91,0.92,-0.99,0.85,-0.85,-0.88,0.23,-1.77,-1.85,-1.83
217.85,-1.12,0.74,-1.09,0.77,-0.77,-0.83,0.27,-1.89,-1.86,-1.86
220.03,-1.23,0.65,-1.19,0.69,-0.69,-0.78,0.31,-1.92,-1.88,-1.88
222.23,-1.33,0.57,-1.28,0.61,-0.61,-0.73,0.34,-1.94,-1.89,-1.90
224.45,-1.37,0.53,-1.36,0.55,-0.55,-0.68,0.38,-1.92,-1.90,-1.90
226.70,-1.37,0.54,-1.44,0.47,-0.47,-0.64,0.41,-1.84,-1.91,-1.91
228.96,-1.52,0.40,-1.52,0.40,-0.40,-0.59,0.45,-1.92,-1.92,-1.92
231.25,-1.58,0.34,-1.60,0.33,-0.33,-0.55,0.48,-1.91,-1.93,-1.92
233.57,-1.63,0.31,-1.66,0.27,-0.27,-0.50,0.51,-1.90,-1.93,-1.94
235.90,-1.81,0.14,-1.73,0.21,-0.21,-0.46,0.54,-2.02,-1.94,-1.95
238.26,-1.82,0.13,-1.80,0.14,-0.14,-0.41,0.57,-1.96,-1.94,-1.95
240.64,-1.82,0.13,-1.87,0.07,-0.07,-0.37,0.59,-1.89,-1.94,-1.95
243.05,-1.98,-0.04,-1.95,-0.01,0.01,-0.32,0.62,-1.97,-1.94,-1.94
245.48,-2.05,-0.11,-2.04,-0.10,0.10,-0.28,0.64,-1.95,-1.94,-1.94
247.93,-2.05,-0.12,-2.12,-0.18,0.18,-0.23,0.66,-1.87,-1.94,-1.93
250.41,-2.24,-0.30,-2.21,-0.27,0.27,-0.19,0.68,-1.97,-1.93,-1.94
252.92,-2.28,-0.35,-2.30,-0.37,0.37,-0.14,0.70,-1.91,-1.93,-1.93
255.45,-2.28,-0.37,-2.39,-0.47,0.47,-0.09,0.72,-1.81,-1.92,-1.91
258.00,-2.42,-0.51,-2.49,-0.58,0.58,-0.04,0.73,-1.84,-1.91,-1.91
260.58,-2.65,-0.75,-2.60,-0.70,0.70,0.01,0.75,-1.95,-1.90,-1.90
263.19,-2.74,-0.85,-2.70,-0.81,0.81,0.06,0.76,-1.93,-1.89,-1.89
265.82,-2.94,-1.05,-2.81,-0.93,0.93,0.11,0.77,-2.01,-1.88,-1.89
268.48,-2.96,-1.09,-2.93,-1.07,1.07,0.17,0.78,-1.89,-1.86,-1.87
271.16,-2.96,-1.11,-3.05,-1.20,1.20,0.22,0.79,-1.76,-1.85,-1.85
273.87,-3.05,-1.21,-3.17,-1.34,1.34,0.28,0.80,-1.71,-1.83,-1.84
276.61,-3.30,-1.49,-3.29,-1.48,1.48,0.35,0.81,-1.82,-1.81,-1.81
279.38,-3.40,-1.61,-3.40,-1.61,1.61,0.41,0.81,-1.79,-1.79,-1.79
282.17,-3.59,-1.82,-3.51,-1.74,1.74,0.48,0.82,-1.85,-1.77,-1.77
284.99,-3.65,-1.91,-3.61,-1.87,1.87,0.56,0.83,-1.78,-1.74,-1.74
287.84,-3.65,-1.93,-3.70,-1.98,1.98,0.64,0.83,-1.67,-1.71,-1.72
290.72,-3.72,-2.03,-3.78,-2.10,2.10,0.72,0.83,-1.62,-1.69,-1.69
293.63,-3.97,-2.31,-3.88,-2.21,2.21,0.81,0.84,-1.76,-1.66,-1.66
296.57,-4.09,-2.45,-3.97,-2.33,2.33,0.90,0.84,-1.76,-1.64,-1.64
299.53,-4.10,-2.49,-4.06,-2.44,2.44,1.00,0.85,-1.66,-1.61,-1.61
302.53,-4.10,-2.50,-4.14,-2.55,2.55,1.11,0.85,-1.55,-1.59,-1.60
305.55,-4.10,-2.54,-4.21,-2.64,2.64,1.23,0.86,-1.46,-1.57,-1.56
308.61,-4.16,-2.62,-4.27,-2.71,2.71,1.35,0.86,-1.45,-1.56,-1.54
311.69,-4.31,-2.78,-4.32,-2.78,2.78,1.48,0.87,-1.53,-1.54,-1.53
314.81,-4.33,-2.83,-4.37,-2.85,2.85,1.62,0.87,-1.48,-1.53,-1.50
317.96,-4.47,-2.96,-4.42,-2.91,2.91,1.77,0.88,-1.56,-1.52,-1.51
321.14,-4.56,-3.05,-4.47,-2.96,2.96,1.92,0.88,-1.60,-1.51,-1.51
324.35,-4.56,-3.06,-4.50,-3.00,3.00,2.09,0.89,-1.56,-1.50,-1.50
327.59,-4.56,-3.06,-4.51,-3.02,3.02,2.25,0.90,-1.54,-1.49,-1.50
330.87,-4.56,-3.07,-4.54,-3.06,3.06,2.43,0.91,-1.50,-1.48,-1.49
334.18,-4.56,-3.08,-4.57,-3.10,3.10,2.60,0.92,-1.46,-1.47,-1.48
337.52,-4.56,-3.08,-4.60,-3.14,3.14,2.77,0.93,-1.42,-1.46,-1.48
340.90,-4.56,-3.11,-4.61,-3.16,3.16,2.93,0.94,-1.40,-1.45,-1.45
344.30,-4.56,-3.12,-4.61,-3.18,3.18,3.08,0.95,-1.38,-1.43,-1.44
347.75,-4.56,-3.13,-4.60,-3.19,3.19,3.21,0.96,-1.37,-1.42,-1.43
351.23,-4.56,-3.16,-4.59,-3.19,3.19,3.32,0.97,-1.37,-1.40,-1.40
354.74,-4.56,-3.18,-4.57,-3.19,3.19,3.40,0.99,-1.37,-1.38,-1.38
358.28,-4.56,-3.21,-4.54,-3.19,3.19,3.44,1.00,-1.37,-1.35,-1.35
361.87,-4.56,-3.23,-4.51,-3.18,3.18,3.45,1.02,-1.38,-1.33,-1.33
365.49,-4.56,-3.25,-4.48,-3.17,3.17,3.42,1.03,-1.39,-1.31,-1.31
369.14,-4.54,-3.25,-4.44,-3.15,3.15,3.36,1.05,-1.39,-1.29,-1.29
372.83,-4.39,-3.13,-4.38,-3.12,3.12,3.27,1.07,-1.27,-1.27,-1.26
376.56,-4.33,-3.09,-4.33,-3.08,3.08,3.16,1.08,-1.25,-1.25,-1.24
380.33,-4.24,-3.02,-4.27,-3.04,3.04,3.02,1.10,-1.20,-1.23,-1.22
384.13,-4.13,-2.93,-4.20,-2.99,2.99,2.87,1.12,-1.14,-1.21,-1.20
387.97,-4.10,-2.91,-4.13,-2.94,2.94,2.71,1.14,-1.16,-1.19,-1.19
391.85,-4.09,-2.91,-4.05,-2.87,2.87,2.55,1.16,-1.22,-1.18,-1.18
395.77,-3.94,-2.77,-3.97,-2.80,2.80,2.39,1.18,-1.14,-1.17,-1.17
399.73,-3.87,-2.71,-3.89,-2.73,2.73,2.23,1.21,-1.14,-1.16,-1.16
403.72,-3.79,-2.63,-3.81,-2.66,2.66,2.08,1.23,-1.13,-1.15,-1.16
407.76,-3.68,-2.53,-3.72,-2.57,2.57,1.94,1.25,-1.11,-1.15,-1.15
411.84,-3.65,-2.51,-3.63,-2.49,2.49,1.80,1.27,-1.16,-1.14,-1.14
415.96,-3.65,-2.52,-3.55,-2.41,2.41,1.67,1.29,-1.24,-1.14,-1.13
420.12,-3.47,-2.34,-3.47,-2.33,2.33,1.55,1.32,-1.14,-1.14,-1.13
424.32,-3.40,-2.27,-3.38,-2.24,2.24,1.44,1.34,-1.16,-1.13,-1.13
428.56,-3.25,-2.12,-3.28,-2.15,2.15,1.34,1.36,-1.10,-1.13,-1.13
432.85,-3.19,-2.06,-3.18,-2.05,2.05,1.24,1.38,-1.14,-1.13,-1.13
437.18,-3.09,-1.96,-3.08,-1.96,1.96,1.15,1.40,-1.13,-1.12,-1.13
441.55,-2.99,-1.87,-2.99,-1.87,1.87,1.07,1.42,-1.12,-1.12,-1.12
445.96,-2.80,-1.68,-2.89,-1.78,1.78,0.99,1.44,-1.02,-1.11,-1.12
450.42,-2.74,-1.63,-2.79,-1.69,1.69,0.92,1.45,-1.05,-1.10,-1.11
454.93,-2.74,-1.64,-2.69,-1.59,1.59,0.86,1.47,-1.15,-1.09,-1.10
459.48,-2.69,-1.60,-2.59,-1.51,1.51,0.80,1.48,-1.18,-1.08,-1.09
464.07,-2.44,-1.37,-2.49,-1.42,1.42,0.74,1.49,-1.02,-1.07,-1.07
468.71,-2.31,-1.26,-2.39,-1.34,1.34,0.69,1.50,-0.97,-1.05,-1.05
473.40,-2.28,-1.24,-2.29,-1.26,1.26,0.64,1.51,-1.02,-1.03,-1.04
478.13,-2.28,-1.27,-2.19,-1.18,1.18,0.60,1.51,-1.10,-1.01,-1.01
482.91,-2.10,-1.11,-2.08,-1.09,1.09,0.56,1.52,-1.01,-0.99,-0.99
487.74,-2.00,-1.04,-1.98,-1.02,1.02,0.52,1.52,-0.98,-0.97,-0.96
492.62,-1.86,-0.92,-1.89,-0.94,0.94,0.49,1.51,-0.92,-0.94,-0.94
497.55,-1.82,-0.90,-1.79,-0.87,0.87,0.45,1.51,-0.95,-0.92,-0.92
502.52,-1.69,-0.80,-1.69,-0.80,0.80,0.42,1.50,-0.89,-0.89,-0.89
507.55,-1.61,-0.74,-1.59,-0.72,0.72,0.40,1.49,-0.89,-0.87,-0.87
