frequency,raw,error,smoothed,error_smoothed,equalization,parametric_eq,fixed_band_eq,equalized_raw,equalized_smoothed,target
20.00,-2.28,-5.63,-2.28,-5.63,5.63,2.69,1.07,3.35,3.35,3.35
20.20,-2.19,-5.58,-2.19,-5.58,5.58,2.69,1.10,3.39,3.39,3.39
20.40,-2.09,-5.51,-2.09,-5.52,5.52,2.68,1.13,3.43,3.43,3.42
20.61,-2.00,-5.45,-2.00,-5.46,5.46,2.68,1.17,3.46,3.46,3.45
20.81,-1.90,-5.39,-1.90,-5.40,5.40,2.68,1.20,3.50,3.49,3.49
21.02,-1.81,-5.34,-1.81,-5.33,5.33,2.68,1.24,3.52,3.52,3.53
21.23,-1.71,-5.25,-1.71,-5.26,5.26,2.67,1.27,3.55,3.54,3.54
21.44,-1.62,-5.18,-1.62,-5.18,5.18,2.67,1.31,3.56,3.56,3.56
21.66,-1.52,-5.10,-1.52,-5.10,5.10,2.66,1.35,3.57,3.57,3.58
21.87,-1.43,-5.02,-1.43,-5.02,5.01,2.66,1.39,3.58,3.58,3.59
22.09,-1.33,-4.93,-1.33,-4.93,4.91,2.66,1.43,3.59,3.59,3.60
22.31,-1.22,-4.82,-1.22,-4.83,4.82,2.65,1.48,3.60,3.60,3.60
22.54,-1.12,-4.73,-1.12,-4.73,4.74,2.65,1.52,3.61,3.62,3.61
22.76,-1.02,-4.64,-1.01,-4.63,4.65,2.64,1.56,3.63,3.64,3.62
22.99,-0.91,-4.53,-0.93,-4.55,4.58,2.64,1.61,3.67,3.65,3.62
23.22,-0.86,-4.49,-0.85,-4.49,4.51,2.64,1.66,3.65,3.66,3.63
23.45,-0.80,-4.44,-0.80,-4.44,4.45,2.63,1.70,3.65,3.65,3.64
23.69,-0.75,-4.40,-0.75,-4.41,4.40,2.63,1.75,3.65,3.65,3.65
23.92,-0.70,-4.36,-0.70,-4.36,4.35,2.62,1.80,3.65,3.66,3.66
24.16,-0.64,-4.31,-0.64,-4.31,4.30,2.62,1.85,3.66,3.66,3.67
24.40,-0.57,-4.25,-0.58,-4.25,4.24,2.61,1.90,3.67,3.66,3.68
24.65,-0.51,-4.18,-0.51,-4.19,4.17,2.61,1.96,3.66,3.66,3.67
24.89,-0.45,-4.12,-0.44,-4.11,4.09,2.60,2.01,3.64,3.65,3.67
25.14,-0.36,-4.03,-0.35,-4.03,4.01,2.59,2.06,3.65,3.65,3.67
25.39,-0.25,-3.92,-0.25,-3.92,3.92,2.59,2.12,3.67,3.67,3.67
25.65,-0.15,-3.82,-0.14,-3.81,3.84,2.58,2.17,3.69,3.70,3.67
25.91,-0.04,-3.70,-0.05,-3.71,3.76,2.57,2.22,3.72,3.71,3.65
26.16,0.03,-3.63,0.02,-3.64,3.68,2.57,2.28,3.71,3.70,3.66
26.43,0.07,-3.59,0.07,-3.59,3.59,2.56,2.33,3.66,3.66,3.66
26.69,0.12,-3.54,0.11,-3.55,3.50,2.55,2.38,3.62,3.61,3.66
26.96,0.16,-3.50,0.18,-3.48,3.41,2.55,2.43,3.57,3.59,3.66
27.23,0.28,-3.38,0.29,-3.38,3.32,2.54,2.48,3.60,3.61,3.66
27.50,0.42,-3.24,0.42,-3.24,3.24,2.53,2.53,3.66,3.66,3.66
27.77,0.56,-3.09,0.55,-3.10,3.16,2.52,2.58,3.72,3.72,3.65
28.05,0.67,-2.98,0.64,-3.01,3.09,2.51,2.62,3.76,3.73,3.65
28.33,0.67,-2.96,0.68,-2.97,3.02,2.50,2.67,3.69,3.70,3.63
28.62,0.68,-2.96,0.68,-2.96,2.96,2.49,2.71,3.64,3.64,3.64
28.90,0.68,-2.96,0.69,-2.95,2.91,2.48,2.74,3.59,3.60,3.64
29.19,0.72,-2.91,0.73,-2.91,2.86,2.47,2.78,3.58,3.59,3.63
29.48,0.79,-2.85,0.78,-2.86,2.82,2.46,2.81,3.61,3.61,3.64
29.78,0.86,-2.78,0.86,-2.78,2.77,2.45,2.84,3.63,3.63,3.64
30.08,0.93,-2.71,0.93,-2.71,2.71,2.44,2.86,3.64,3.64,3.64
30.38,1.00,-2.62,1.00,-2.63,2.64,2.43,2.89,3.64,3.64,3.62
30.68,1.07,-2.55,1.07,-2.55,2.56,2.41,2.90,3.63,3.63,3.62
30.99,1.14,-2.47,1.14,-2.48,2.48,2.40,2.92,3.62,3.62,3.61
31.30,1.21,-2.40,1.21,-2.40,2.39,2.39,2.92,3.60,3.60,3.61
31.61,1.28,-2.33,1.28,-2.33,2.31,2.37,2.93,3.59,3.59,3.61
31.93,1.35,-2.24,1.35,-2.25,2.24,2.36,2.93,3.59,3.59,3.59
32.24,1.42,-2.16,1.42,-2.16,2.18,2.34,2.93,3.60,3.60,3.58
32.57,1.49,-2.09,1.49,-2.09,2.12,2.32,2.92,3.61,3.62,3.58
32.89,1.56,-2.02,1.55,-2.04,2.07,2.31,2.91,3.63,3.62,3.58
33.22,1.58,-2.00,1.58,-2.00,2.02,2.29,2.90,3.60,3.60,3.58
33.55,1.59,-1.98,1.59,-1.99,1.97,2.27,2.88,3.56,3.57,3.57
33.89,1.60,-1.97,1.61,-1.96,1.92,2.25,2.86,3.52,3.53,3.57
34.23,1.65,-1.92,1.66,-1.91,1.87,2.23,2.84,3.52,3.52,3.57
34.57,1.73,-1.83,1.72,-1.84,1.81,2.20,2.82,3.54,3.53,3.56
34.92,1.80,-1.75,1.80,-1.76,1.75,2.18,2.79,3.55,3.55,3.55
35.27,1.88,-1.67,1.89,-1.66,1.69,2.16,2.76,3.57,3.58,3.55
35.62,1.96,-1.58,1.96,-1.58,1.63,2.13,2.73,3.59,3.59,3.54
35.97,2.03,-1.50,2.01,-1.53,1.56,2.10,2.70,3.59,3.58,3.53
36.33,2.04,-1.49,2.04,-1.50,1.50,2.07,2.67,3.54,3.53,3.53
36.70,2.05,-1.48,2.05,-1.47,1.44,2.04,2.64,3.49,3.49,3.53
37.06,2.06,-1.45,2.09,-1.43,1.38,2.01,2.60,3.45,3.47,3.51
37.43,2.15,-1.36,2.15,-1.36,1.34,1.97,2.57,3.49,3.49,3.51
37.81,2.24,-1.26,2.22,-1.28,1.30,1.94,2.54,3.54,3.52,3.50
38.19,2.28,-1.21,2.27,-1.23,1.26,1.90,2.50,3.54,3.53,3.49
38.57,2.28,-1.21,2.29,-1.20,1.23,1.86,2.47,3.51,3.52,3.49
38.95,2.28,-1.20,2.28,-1.20,1.21,1.82,2.44,3.49,3.49,3.48
39.34,2.28,-1.19,2.28,-1.19,1.19,1.77,2.41,3.47,3.47,3.47
39.74,2.28,-1.17,2.28,-1.18,1.17,1.72,2.38,3.45,3.45,3.45
40.14,2.28,-1.18,2.28,-1.18,1.17,1.67,2.35,3.45,3.45,3.46
40.54,2.28,-1.17,2.28,-1.18,1.17,1.62,2.32,3.45,3.45,3.45
40.94,2.28,-1.17,2.28,-1.17,1.16,1.57,2.29,3.44,3.44,3.45
41.35,2.28,-1.15,2.28,-1.15,1.16,1.51,2.26,3.44,3.44,3.43
41.76,2.28,-1.13,2.28,-1.14,1.15,1.44,2.24,3.43,3.43,3.41
42.18,2.28,-1.12,2.28,-1.12,1.13,1.38,2.22,3.41,3.41,3.40
42.60,2.28,-1.09,2.28,-1.10,1.10,1.31,2.20,3.38,3.38,3.37
43.03,2.28,-1.08,2.27,-1.09,1.06,1.24,2.18,3.34,3.33,3.36
43.46,2.28,-1.05,2.27,-1.05,1.01,1.16,2.16,3.29,3.29,3.33
43.90,2.28,-1.00,2.31,-0.98,0.95,1.09,2.14,3.23,3.26,3.28
44.33,2.36,-0.89,2.37,-0.89,0.88,1.01,2.13,3.25,3.25,3.25
44.78,2.46,-0.76,2.44,-0.78,0.81,0.92,2.12,3.26,3.24,3.22
45.23,2.51,-0.68,2.49,-0.70,0.72,0.84,2.11,3.23,3.21,3.19
45.68,2.51,-0.65,2.52,-0.64,0.64,0.75,2.10,3.15,3.16,3.16
46.13,2.54,-0.60,2.58,-0.57,0.56,0.67,2.09,3.10,3.14,3.14
46.60,2.65,-0.48,2.64,-0.49,0.49,0.58,2.09,3.14,3.13,3.13
47.06,2.74,-0.37,2.71,-0.41,0.44,0.50,2.08,3.18,3.15,3.11
47.53,2.74,-0.37,2.75,-0.37,0.40,0.41,2.08,3.14,3.14,3.11
48.01,2.74,-0.37,2.75,-0.36,0.37,0.33,2.08,3.11,3.12,3.11
48.49,2.74,-0.35,2.74,-0.36,0.35,0.26,2.08,3.09,3.09,3.09
48.97,2.74,-0.34,2.74,-0.34,0.34,0.20,2.08,3.08,3.08,3.08
49.46,2.74,-0.33,2.74,-0.33,0.34,0.14,2.08,3.08,3.08,3.07
49.96,2.74,-0.33,2.74,-0.34,0.34,0.09,2.08,3.08,3.08,3.07
50.46,2.74,-0.34,2.74,-0.34,0.34,0.05,2.09,3.08,3.08,3.08
50.96,2.74,-0.35,2.74,-0.35,0.34,0.03,2.09,3.08,3.08,3.09
51.47,2.74,-0.34,2.74,-0.34,0.33,0.02,2.10,3.07,3.07,3.08
51.99,2.74,-0.32,2.74,-0.33,0.31,0.02,2.10,3.05,3.05,3.06
52.51,2.74,-0.31,2.74,-0.31,0.28,0.03,2.11,3.02,3.02,3.05
53.03,2.74,-0.28,2.74,-0.28,0.26,0.06,2.12,3.00,3.00,3.02
53.56,2.74,-0.25,2.74,-0.25,0.24,0.10,2.12,2.98,2.99,2.99
54.10,2.74,-0.21,2.75,-0.20,0.23,0.15,2.13,2.97,2.98,2.95
54.64,2.74,-0.16,2.73,-0.17,0.23,0.21,2.13,2.97,2.96,2.90
55.18,2.70,-0.15,2.68,-0.18,0.23,0.28,2.13,2.93,2.91,2.85
55.74,2.57,-0.23,2.57,-0.24,0.24,0.36,2.14,2.81,2.81,2.80
56.29,2.44,-0.31,2.44,-0.31,0.25,0.44,2.14,2.69,2.69,2.75
56.86,2.31,-0.38,2.35,-0.34,0.28,0.53,2.14,2.59,2.63,2.69
57.42,2.28,-0.34,2.29,-0.34,0.31,0.62,2.13,2.59,2.60,2.62
58.00,2.28,-0.28,2.23,-0.33,0.35,0.72,2.13,2.63,2.58,2.56
58.58,2.15,-0.35,2.15,-0.36,0.38,0.81,2.12,2.54,2.53,2.50
59.16,2.01,-0.44,2.03,-0.42,0.42,0.91,2.11,2.43,2.45,2.45
59.76,1.88,-0.51,1.88,-0.51,0.48,1.02,2.10,2.36,2.36,2.39
60.35,1.75,-0.57,1.75,-0.58,0.55,1.12,2.08,2.30,2.31,2.32
60.96,1.61,-0.66,1.63,-0.64,0.66,1.23,2.06,2.27,2.29,2.27
61.57,1.47,-0.73,1.46,-0.75,0.80,1.34,2.04,2.28,2.26,2.20
62.18,1.27,-0.86,1.23,-0.91,0.97,1.45,2.02,2.24,2.20,2.13
62.80,0.93,-1.16,0.95,-1.14,1.17,1.57,1.99,2.09,2.11,2.09
63.43,0.62,-1.41,0.64,-1.39,1.38,1.69,1.95,2.00,2.03,2.03
64.07,0.33,-1.66,0.34,-1.65,1.62,1.83,1.92,1.95,1.96,1.99
64.71,0.06,-1.88,0.05,-1.89,1.87,1.97,1.88,1.93,1.92,1.94
65.35,-0.29,-2.19,-0.30,-2.20,2.14,2.12,1.84,1.84,1.84,1.89
66.01,-0.69,-2.55,-0.72,-2.58,2.40,2.29,1.79,1.71,1.69,1.86
66.67,-1.21,-3.03,-1.22,-3.05,2.67,2.47,1.74,1.46,1.45,1.82
67.33,-1.72,-3.52,-1.70,-3.50,2.93,2.67,1.69,1.20,1.22,1.79
68.01,-2.20,-3.96,-2.12,-3.89,3.18,2.88,1.64,0.99,1.06,1.76
68.69,-2.44,-4.17,-2.48,-4.21,3.45,3.11,1.58,1.01,0.97,1.73
69.37,-2.76,-4.46,-2.81,-4.50,3.75,3.35,1.52,0.98,0.94,1.69
70.07,-3.14,-4.80,-3.12,-4.79,4.04,3.60,1.46,0.90,0.92,1.66
70.77,-3.47,-5.12,-3.45,-5.09,4.32,3.85,1.39,0.85,0.87,1.65
71.48,-3.72,-5.33,-3.73,-5.35,4.55,4.06,1.32,0.83,0.82,1.61
72.19,-3.92,-5.51,-3.93,-5.52,4.72,4.25,1.26,0.80,0.79,1.59
72.91,-4.08,-5.63,-4.06,-5.62,4.83,4.35,1.19,0.75,0.77,1.55
73.64,-4.10,-5.62,-4.10,-5.63,4.85,4.40,1.11,0.75,0.75,1.52
74.38,-4.04,-5.53,-4.04,-5.53,4.80,4.35,1.04,0.76,0.77,1.49
75.12,-3.88,-5.34,-3.86,-5.33,4.68,4.24,0.97,0.80,0.81,1.46
75.87,-3.60,-5.03,-3.61,-5.04,4.49,4.04,0.89,0.89,0.88,1.43
76.63,-3.28,-4.68,-3.27,-4.67,4.24,3.81,0.81,0.96,0.97,1.40
77.40,-2.90,-4.27,-2.89,-4.26,3.96,3.55,0.74,1.05,1.07,1.37
78.17,-2.49,-3.83,-2.52,-3.86,3.65,3.28,0.66,1.17,1.14,1.34
78.95,-2.16,-3.49,-2.17,-3.50,3.36,3.01,0.58,1.20,1.19,1.33
79.74,-1.87,-3.18,-1.86,-3.17,3.10,2.76,0.50,1.23,1.23,1.31
80.54,-1.60,-2.89,-1.60,-2.89,2.84,2.52,0.42,1.24,1.24,1.29
81.35,-1.34,-2.61,-1.34,-2.62,2.58,2.29,0.34,1.24,1.24,1.27
82.16,-1.08,-2.35,-1.08,-2.35,2.33,2.09,0.26,1.25,1.26,1.27
82.98,-0.82,-2.09,-0.81,-2.07,2.09,1.90,0.18,1.27,1.28,1.27
83.81,-0.55,-1.81,-0.56,-1.82,1.85,1.73,0.10,1.30,1.29,1.26
84.65,-0.32,-1.57,-0.35,-1.61,1.62,1.57,0.02,1.30,1.27,1.25
85.50,-0.17,-1.43,-0.16,-1.42,1.40,1.43,-0.07,1.23,1.24,1.26
86.35,0.01,-1.25,0.05,-1.21,1.19,1.29,-0.15,1.20,1.24,1.26
87.22,0.26,-1.00,0.26,-1.01,1.00,1.17,-0.23,1.26,1.26,1.26
88.09,0.52,-0.74,0.49,-0.78,0.82,1.05,-0.32,1.34,1.31,1.26
88.97,0.67,-0.61,0.68,-0.60,0.64,0.93,-0.40,1.31,1.32,1.28
89.86,0.84,-0.44,0.82,-0.46,0.47,0.82,-0.48,1.31,1.29,1.28
90.76,0.92,-0.34,0.94,-0.33,0.30,0.72,-0.57,1.22,1.24,1.26
91.66,1.07,-0.20,1.08,-0.19,0.14,0.62,-0.65,1.21,1.21,1.27
92.58,1.22,-0.02,1.23,-0.02,-0.02,0.52,-0.74,1.20,1.21,1.24
93.51,1.42,0.17,1.41,0.16,-0.17,0.42,-0.82,1.25,1.24,1.25
94.44,1.58,0.35,1.57,0.34,-0.31,0.33,-0.91,1.28,1.27,1.23
95.39,1.69,0.47,1.70,0.49,-0.44,0.23,-0.99,1.25,1.27,1.22
96.34,1.82,0.64,1.77,0.58,-0.56,0.14,-1.08,1.26,1.21,1.18
97.30,1.82,0.66,1.85,0.68,-0.68,0.05,-1.16,1.14,1.17,1.16
98.28,1.87,0.73,1.92,0.78,-0.78,-0.04,-1.25,1.09,1.14,1.14
99.26,2.02,0.91,1.97,0.86,-0.87,-0.13,-1.33,1.15,1.10,1.11
100.25,2.05,0.97,2.03,0.94,-0.96,-0.22,-1.42,1.09,1.07,1.08
101.25,2.05,1.00,2.07,1.02,-1.05,-0.31,-1.50,1.00,1.03,1.05
102.27,2.08,1.07,2.12,1.11,-1.13,-0.40,-1.58,0.95,0.99,1.01
103.29,2.20,1.24,2.19,1.22,-1.22,-0.49,-1.67,0.98,0.97,0.96
104.32,2.28,1.36,2.25,1.33,-1.30,-0.58,-1.75,0.98,0.95,0.92
105.37,2.28,1.41,2.29,1.41,-1.38,-0.67,-1.83,0.90,0.91,0.87
106.42,2.28,1.46,2.29,1.47,-1.46,-0.77,-1.90,0.82,0.83,0.82
107.48,2.28,1.53,2.28,1.53,-1.54,-0.86,-1.98,0.74,0.74,0.75
108.56,2.28,1.61,2.28,1.60,-1.62,-0.95,-2.05,0.66,0.66,0.67
109.64,2.28,1.68,2.28,1.67,-1.69,-1.04,-2.13,0.59,0.59,0.60
110.74,2.28,1.74,2.28,1.74,-1.76,-1.14,-2.19,0.52,0.52,0.54
111.85,2.28,1.81,2.28,1.82,-1.81,-1.23,-2.26,0.47,0.47,0.47
112.97,2.28,1.90,2.29,1.90,-1.86,-1.32,-2.32,0.42,0.43,0.38
114.10,2.28,1.96,2.27,1.95,-1.91,-1.42,-2.38,0.37,0.36,0.32
115.24,2.25,2.01,2.21,1.97,-1.95,-1.51,-2.43,0.30,0.27,0.24
116.39,2.12,1.96,2.14,1.97,-1.98,-1.60,-2.48,0.14,0.16,0.16
117.55,2.05,1.95,2.08,1.98,-2.01,-1.69,-2.53,0.04,0.06,0.10
118.73,2.05,2.02,2.04,2.00,-2.04,-1.79,-2.57,0.01,0.01,0.03
119.92,2.05,2.06,2.04,2.06,-2.06,-1.88,-2.60,-0.01,-0.01,-0.01
121.12,2.05,2.12,2.05,2.11,-2.09,-1.97,-2.63,-0.04,-0.04,-0.07
122.33,2.05,2.16,2.05,2.15,-2.13,-2.06,-2.65,-0.08,-0.08,-0.11
123.55,2.05,2.18,2.04,2.18,-2.19,-2.14,-2.67,-0.14,-0.14,-0.13
124.79,2.05,2.22,2.04,2.21,-2.25,-2.23,-2.68,-0.20,-0.21,-0.17
126.03,2.05,2.26,2.07,2.28,-2.32,-2.31,-2.68,-0.27,-0.25,-0.21
127.29,2.12,2.36,2.14,2.38,-2.39,-2.39,-2.68,-0.27,-0.26,-0.24
128.57,2.23,2.51,2.21,2.48,-2.46,-2.47,-2.67,-0.23,-0.25,-0.28
129.85,2.28,2.59,2.26,2.57,-2.52,-2.55,-2.66,-0.24,-0.26,-0.31
131.15,2.28,2.62,2.29,2.62,-2.58,-2.62,-2.64,-0.30,-0.30,-0.34
132.46,2.28,2.65,2.28,2.65,-2.64,-2.69,-2.61,-0.36,-0.36,-0.37
133.79,2.28,2.68,2.28,2.68,-2.69,-2.75,-2.59,-0.41,-0.41,-0.40
135.12,2.28,2.73,2.28,2.72,-2.73,-2.81,-2.55,-0.45,-0.45,-0.45
136.48,2.28,2.76,2.28,2.75,-2.77,-2.87,-2.51,-0.49,-0.49,-0.48
137.84,2.28,2.79,2.28,2.80,-2.81,-2.91,-2.47,-0.53,-0.53,-0.51
139.22,2.28,2.84,2.28,2.84,-2.84,-2.96,-2.42,-0.56,-0.56,-0.56
140.61,2.28,2.89,2.28,2.88,-2.88,-3.00,-2.37,-0.60,-0.60,-0.61
142.02,2.28,2.91,2.28,2.91,-2.92,-3.03,-2.32,-0.64,-0.64,-0.63
143.44,2.28,2.95,2.28,2.95,-2.95,-3.06,-2.26,-0.67,-0.66,-0.67
144.87,2.28,2.99,2.29,2.99,-2.98,-3.08,-2.20,-0.70,-0.69,-0.71
146.32,2.28,3.04,2.26,3.01,-3.01,-3.10,-2.14,-0.73,-0.74,-0.76
147.78,2.23,3.03,2.20,3.01,-3.02,-3.11,-2.07,-0.79,-0.82,-0.80
149.26,2.11,2.98,2.15,3.01,-3.03,-3.11,-2.01,-0.92,-0.89,-0.87
150.75,2.05,3.00,2.07,3.01,-3.03,-3.11,-1.94,-0.98,-0.96,-0.95
152.26,2.04,3.06,2.00,3.02,-3.02,-3.10,-1.88,-0.98,-1.02,-1.02
153.78,1.90,2.99,1.91,3.01,-2.99,-3.09,-1.81,-1.09,-1.08,-1.09
155.32,1.78,2.97,1.77,2.94,-2.92,-3.07,-1.74,-1.14,-1.15,-1.19
156.88,1.60,2.86,1.62,2.87,-2.82,-3.04,-1.67,-1.22,-1.21,-1.26
158.44,1.43,2.76,1.46,2.79,-2.70,-3.01,-1.60,-1.27,-1.24,-1.33
160.03,1.31,2.72,1.26,2.67,-2.57,-2.98,-1.54,-1.26,-1.31,-1.41
161.63,1.04,2.51,1.02,2.49,-2.45,-2.94,-1.47,-1.41,-1.43,-1.47
163.24,0.78,2.30,0.77,2.29,-2.36,-2.90,-1.40,-1.58,-1.59,-1.52
164.88,0.52,2.08,0.58,2.14,-2.30,-2.85,-1.33,-1.78,-1.73,-1.56
166.53,0.50,2.10,0.52,2.12,-2.30,-2.80,-1.26,-1.80,-1.77,-1.60
168.19,0.61,2.24,0.58,2.21,-2.33,-2.74,-1.20,-1.72,-1.74,-1.63
169.87,0.74,2.38,0.74,2.38,-2.39,-2.69,-1.13,-1.65,-1.65,-1.64
171.57,0.88,2.53,0.90,2.54,-2.47,-2.62,-1.07,-1.59,-1.57,-1.65
173.29,1.05,2.70,1.03,2.67,-2.57,-2.56,-1.00,-1.52,-1.54,-1.65
175.02,1.14,2.77,1.12,2.76,-2.65,-2.50,-0.94,-1.51,-1.53,-1.63
176.77,1.14,2.78,1.16,2.79,-2.71,-2.43,-0.87,-1.57,-1.55,-1.64
178.54,1.14,2.77,1.12,2.75,-2.73,-2.36,-0.81,-1.59,-1.61,-1.63
180.32,1.06,2.68,1.05,2.67,-2.70,-2.29,-0.75,-1.64,-1.65,-1.62
182.13,0.96,2.58,1.00,2.61,-2.63,-2.22,-0.69,-1.67,-1.64,-1.62
183.95,0.91,2.53,0.94,2.56,-2.56,-2.15,-0.63,-1.65,-1.62,-1.62
185.79,0.91,2.54,0.84,2.47,-2.47,-2.08,-0.57,-1.56,-1.63,-1.63
187.65,0.75,2.40,0.72,2.36,-2.39,-2.00,-0.51,-1.64,-1.67,-1.65
189.52,0.52,2.19,0.59,2.26,-2.30,-1.93,-0.45,-1.78,-1.71,-1.67
191.42,0.46,2.15,0.48,2.17,-2.22,-1.86,-0.39,-1.76,-1.74,-1.69
193.33,0.46,2.17,0.41,2.11,-2.12,-1.78,-0.33,-1.66,-1.71,-1.71
195.27,0.35,2.06,0.36,2.08,-2.02,-1.71,-0.28,-1.67,-1.66,-1.71
197.22,0.25,1.98,0.24,1.97,-1.91,-1.63,-0.22,-1.66,-1.67,-1.73
199.19,0.09,1.86,0.07,1.82,-1.79,-1.55,-0.17,-1.70,-1.73,-1.77
201.18,-0.14,1.63,-0.10,1.67,-1.68,-1.48,-0.12,-1.82,-1.78,-1.77
203.19,-0.27,1.52,-0.27,1.52,-1.55,-1.40,-0.06,-1.82,-1.82,-1.79
205.23,-0.40,1.42,-0.41,1.40,-1.43,-1.33,-0.01,-1.83,-1.84,-1.82
207.28,-0.54,1.28,-0.54,1.29,-1.30,-1.25,0.04,-1.84,-1.84,-1.82
209.35,-0.65,1.19,-0.68,1.17,-1.18,-1.18,0.09,-1.83,-1.86,-1.84
211.44,-0.81,1.06,-0.78,1.08,-1.07,-1.10,0.14,-1.88,-1.85,-1.87
213.56,-0.90,0.97,-0.88,0.99,-0.97,-1.02,0.19,-1.87,-1.85,-1.87
215.69,-0.91,0.96,-0.98,0.89,-0.88,-0.95,0.24,-1.79,-1.86,-1.87
217.85,-1.12,0.78,-1.10,0.80,-0.80,-0.87,0.28,-1.92,-1.89,-1.90
220.03,-1.23,0.68,-1.22,0.69,-0.72,-0.80,0.33,-1.95,-1.94,-1.91
222.23,-1.33,0.60,-1.31,0.61,-0.64,-0.72,0.37,-1.97,-1.95,-1.93
224.45,-1.37,0.56,-1.36,0.56,-0.56,-0.64,0.41,-1.93,-1.93,-1.93
226.70,-1.37,0.56,-1.43,0.51,-0.49,-0.56,0.45,-1.86,-1.92,-1.93
228.96,-1.52,0.42,-1.48,0.45,-0.42,-0.48,0.49,-1.94,-1.90,-1.94
231.25,-1.58,0.36,-1.58,0.36,-0.36,-0.40,0.53,-1.94,-1.93,-1.94
233.57,-1.63,0.32,-1.69,0.26,-0.29,-0.32,0.56,-1.92,-1.97,-1.95
235.90,-1.81,0.15,-1.74,0.21,-0.22,-0.24,0.59,-2.03,-1.96,-1.96
238.26,-1.82,0.14,-1.81,0.14,-0.14,-0.16,0.63,-1.96,-1.96,-1.96
240.64,-1.82,0.14,-1.89,0.06,-0.07,-0.07,0.66,-1.89,-1.96,-1.96
243.05,-1.98,-0.03,-1.93,0.01,0.00,0.01,0.68,-1.98,-1.93,-1.95
245.48,-2.05,-0.11,-2.02,-0.09,0.08,0.10,0.71,-1.97,-1.95,-1.94
247.93,-2.05,-0.12,-2.13,-0.19,0.16,0.18,0.73,-1.89,-1.97,-1.93
250.41,-2.24,-0.30,-2.18,-0.26,0.25,0.28,0.76,-1.99,-1.93,-1.94
252.92,-2.28,-0.35,-2.24,-0.32,0.36,0.37,0.78,-1.92,-1.88,-1.93
255.45,-2.28,-0.38,-2.35,-0.44,0.48,0.46,0.79,-1.80,-1.87,-1.90
258.00,-2.42,-0.52,-2.44,-0.54,0.59,0.56,0.81,-1.83,-1.85,-1.90
260.58,-2.65,-0.75,-2.60,-0.71,0.70,0.65,0.83,-1.95,-1.90,-1.90
263.19,-2.74,-0.86,-2.78,-0.90,0.82,0.75,0.84,-1.92,-1.96,-1.88
265.82,-2.94,-1.06,-2.89,-1.02,0.95,0.86,0.85,-1.99,-1.94,-1.88
268.48,-2.96,-1.11,-2.93,-1.08,1.09,0.96,0.86,-1.87,-1.85,-1.85
271.16,-2.96,-1.12,-3.01,-1.17,1.22,1.07,0.87,-1.74,-1.79,-1.84
273.87,-3.05,-1.22,-3.09,-1.28,1.35,1.18,0.88,-1.70,-1.74,-1.83
276.61,-3.30,-1.51,-3.25,-1.45,1.48,1.29,0.88,-1.82,-1.77,-1.79
279.38,-3.40,-1.62,-3.43,-1.66,1.61,1.40,0.89,-1.79,-1.82,-1.78
282.17,-3.59,-1.84,-3.56,-1.81,1.75,1.52,0.89,-1.84,-1.81,-1.75
284.99,-3.65,-1.93,-3.61,-1.89,1.90,1.64,0.90,-1.75,-1.71,-1.72
287.84,-3.65,-1.95,-3.69,-2.00,2.04,1.76,0.90,-1.61,-1.65,-1.70
290.72,-3.72,-2.06,-3.79,-2.13,2.16,1.88,0.90,-1.56,-1.63,-1.66
293.63,-3.97,-2.33,-3.92,-2.29,2.27,2.01,0.90,-1.70,-1.65,-1.64
296.57,-4.09,-2.48,-4.05,-2.44,2.37,2.13,0.91,-1.72,-1.68,-1.61
299.53,-4.10,-2.52,-4.11,-2.53,2.46,2.25,0.91,-1.64,-1.65,-1.58
302.53,-4.10,-2.53,-4.10,-2.54,2.55,2.38,0.91,-1.55,-1.55,-1.57
305.55,-4.10,-2.57,-4.13,-2.59,2.65,2.50,0.91,-1.45,-1.48,-1.53
308.61,-4.16,-2.65,-4.18,-2.67,2.74,2.61,0.91,-1.42,-1.44,-1.51
311.69,-4.31,-2.81,-4.26,-2.78,2.82,2.73,0.91,-1.49,-1.44,-1.50
314.81,-4.33,-2.86,-4.37,-2.90,2.89,2.84,0.92,-1.44,-1.49,-1.47
317.96,-4.47,-3.00,-4.47,-3.00,2.95,2.94,0.92,-1.52,-1.52,-1.47
321.14,-4.56,-3.08,-4.53,-3.06,3.01,3.04,0.92,-1.55,-1.52,-1.48
324.35,-4.56,-3.09,-4.57,-3.10,3.06,3.13,0.93,-1.50,-1.51,-1.47
327.59,-4.56,-3.10,-4.57,-3.11,3.10,3.20,0.93,-1.46,-1.47,-1.46
330.87,-4.56,-3.11,-4.56,-3.11,3.13,3.27,0.94,-1.43,-1.43,-1.45
334.18,-4.56,-3.11,-4.56,-3.12,3.14,3.33,0.94,-1.42,-1.42,-1.45
337.52,-4.56,-3.12,-4.56,-3.13,3.14,3.37,0.95,-1.42,-1.42,-1.44
340.90,-4.56,-3.15,-4.56,-3.14,3.15,3.40,0.96,-1.41,-1.41,-1.41
344.30,-4.56,-3.16,-4.56,-3.16,3.17,3.41,0.96,-1.39,-1.39,-1.40
347.75,-4.56,-3.17,-4.56,-3.18,3.19,3.41,0.97,-1.37,-1.37,-1.39
351.23,-4.56,-3.20,-4.56,-3.20,3.22,3.40,0.98,-1.34,-1.34,-1.36
354.74,-4.56,-3.22,-4.56,-3.23,3.24,3.38,0.99,-1.32,-1.32,-1.34
358.28,-4.56,-3.25,-4.56,-3.25,3.25,3.34,1.01,-1.31,-1.31,-1.31
361.87,-4.56,-3.27,-4.57,-3.29,3.26,3.29,1.02,-1.30,-1.32,-1.29
365.49,-4.56,-3.29,-4.55,-3.29,3.25,3.23,1.03,-1.31,-1.31,-1.27
369.14,-4.54,-3.29,-4.50,-3.26,3.22,3.17,1.04,-1.32,-1.28,-1.25
372.83,-4.39,-3.17,-4.43,-3.21,3.19,3.09,1.06,-1.20,-1.23,-1.22
376.56,-4.33,-3.13,-4.32,-3.13,3.15,3.01,1.07,-1.18,-1.17,-1.20
380.33,-4.24,-3.07,-4.22,-3.05,3.09,2.92,1.09,-1.15,-1.13,-1.17
384.13,-4.13,-2.98,-4.17,-3.02,3.03,2.83,1.11,-1.10,-1.14,-1.15
387.97,-4.10,-2.96,-4.10,-2.96,2.96,2.74,1.12,-1.14,-1.14,-1.14
391.85,-4.09,-2.95,-4.04,-2.91,2.89,2.64,1.14,-1.20,-1.15,-1.14
395.77,-3.94,-2.81,-3.97,-2.84,2.83,2.54,1.16,-1.11,-1.14,-1.13
399.73,-3.87,-2.75,-3.87,-2.75,2.77,2.45,1.18,-1.10,-1.10,-1.12
403.72,-3.79,-2.68,-3.77,-2.66,2.70,2.35,1.20,-1.09,-1.06,-1.11
407.76,-3.68,-2.58,-3.72,-2.63,2.64,2.26,1.22,-1.04,-1.09,-1.10
411.84,-3.65,-2.56,-3.66,-2.57,2.56,2.16,1.24,-1.09,-1.10,-1.09
415.96,-3.65,-2.57,-3.59,-2.51,2.48,2.07,1.26,-1.17,-1.11,-1.08
420.12,-3.47,-2.39,-3.50,-2.43,2.39,1.98,1.28,-1.08,-1.11,-1.08
424.32,-3.40,-2.32,-3.39,-2.31,2.30,1.90,1.30,-1.10,-1.09,-1.08
428.56,-3.25,-2.17,-3.27,-2.19,2.20,1.81,1.32,-1.05,-1.07,-1.08
432.85,-3.19,-2.10,-3.19,-2.11,2.11,1.73,1.33,-1.08,-1.08,-1.09
437.18,-3.09,-2.01,-3.08,-2.00,2.01,1.65,1.35,-1.08,-1.07,-1.08
441.55,-2.99,-1.92,-2.96,-1.88,1.91,1.58,1.37,-1.08,-1.05,-1.07
445.96,-2.80,-1.73,-2.84,-1.78,1.81,1.51,1.38,-0.99,-1.03,-1.07
450.42,-2.74,-1.68,-2.78,-1.72,1.72,1.44,1.40,-1.02,-1.06,-1.06
454.93,-2.74,-1.69,-2.71,-1.66,1.63,1.37,1.41,-1.11,-1.08,-1.05
459.48,-2.69,-1.65,-2.61,-1.58,1.55,1.31,1.42,-1.14,-1.06,-1.04
464.07,-2.44,-1.42,-2.48,-1.46,1.47,1.25,1.43,-0.97,-1.01,-1.02
468.71,-2.31,-1.31,-2.37,-1.37,1.40,1.19,1.44,-0.91,-0.97,-1.00
473.40,-2.28,-1.29,-2.27,-1.29,1.32,1.14,1.45,-0.96,-0.95,-0.99
478.13,-2.28,-1.32,-2.22,-1.26,1.25,1.09,1.45,-1.03,-0.97,-0.96
482.91,-2.10,-1.16,-2.12,-1.19,1.17,1.03,1.45,-0.93,-0.95,-0.94
487.74,-2.00,-1.09,-2.01,-1.10,1.09,0.99,1.45,-0.91,-0.92,-0.91
492.62,-1.86,-0.98,-1.88,-1.00,1.01,0.94,1.45,-0.85,-0.87,-0.88
497.55,-1.82,-0.96,-1.80,-0.95,0.93,0.90,1.44,-0.89,-0.87,-0.86
502.52,-1.69,-0.86,-1.69,-0.86,0.85,0.86,1.43,-0.84,-0.84,-0.83
