frequency,raw,error,smoothed,error_smoothed,equalization,parametric_eq,fixed_band_eq,equalized_raw,equalized_smoothed,target
20.00,-15.89,-18.32,-15.89,-18.32,18.30,17.72,6.92,2.41,2.41,2.43
20.20,-15.76,-18.24,-15.76,-18.24,18.24,17.77,7.07,2.48,2.48,2.48
20.40,-15.64,-18.17,-15.63,-18.16,18.17,17.80,7.23,2.53,2.54,2.53
20.61,-15.51,-18.07,-15.51,-18.08,18.10,17.81,7.39,2.58,2.59,2.56
20.81,-15.38,-17.99,-15.39,-18.00,18.01,17.80,7.56,2.63,2.63,2.61
21.02,-15.26,-17.91,-15.26,-17.91,17.93,17.76,7.72,2.67,2.66,2.65
21.23,-15.15,-17.82,-15.15,-17.82,17.83,17.71,7.90,2.68,2.69,2.67
21.44,-15.03,-17.72,-15.04,-17.73,17.73,17.64,8.07,2.70,2.69,2.69
21.66,-14.92,-17.63,-14.92,-17.63,17.62,17.55,8.26,2.70,2.70,2.71
21.87,-14.81,-17.53,-14.80,-17.53,17.51,17.44,8.44,2.70,2.71,2.72
22.09,-14.67,-17.41,-14.67,-17.41,17.39,17.32,8.64,2.72,2.72,2.74
22.31,-14.52,-17.27,-14.52,-17.27,17.25,17.19,8.83,2.74,2.73,2.75
22.54,-14.37,-17.12,-14.37,-17.12,17.12,17.05,9.03,2.74,2.75,2.75
22.76,-14.21,-16.96,-14.21,-16.96,16.97,16.90,9.24,2.76,2.76,2.75
22.99,-14.06,-16.80,-14.06,-16.81,16.82,16.75,9.45,2.76,2.76,2.74
23.22,-13.92,-16.66,-13.92,-16.66,16.68,16.59,9.67,2.76,2.76,2.74
23.45,-13.78,-16.52,-13.78,-16.52,16.53,16.43,9.90,2.75,2.75,2.74
23.69,-13.64,-16.39,-13.64,-16.39,16.39,16.26,10.13,2.75,2.75,2.75
23.92,-13.50,-16.25,-13.50,-16.25,16.25,16.09,10.36,2.76,2.76,2.75
24.16,-13.36,-16.11,-13.36,-16.12,16.12,15.93,10.61,2.76,2.76,2.75
24.40,-13.23,-15.99,-13.23,-15.99,15.99,15.76,10.86,2.76,2.76,2.76
24.65,-13.10,-15.85,-13.10,-15.86,15.85,15.59,11.11,2.75,2.75,2.75
24.89,-12.98,-15.73,-12.97,-15.72,15.71,15.43,11.37,2.73,2.74,2.75
25.14,-12.83,-15.58,-12.83,-15.58,15.56,15.26,11.64,2.74,2.74,2.75
25.39,-12.67,-15.43,-12.67,-15.43,15.42,15.10,11.92,2.75,2.75,2.76
25.65,-12.51,-15.27,-12.51,-15.27,15.27,14.95,12.20,2.76,2.76,2.76
25.91,-12.35,-15.10,-12.35,-15.11,15.12,14.79,12.49,2.77,2.77,2.75
26.16,-12.20,-14.95,-12.20,-14.96,14.97,14.64,12.78,2.77,2.77,2.75
26.43,-12.06,-14.81,-12.06,-14.81,14.82,14.49,13.08,2.76,2.76,2.75
26.69,-11.92,-14.67,-11.92,-14.67,14.67,14.34,13.38,2.75,2.75,2.75
26.96,-11.78,-14.53,-11.78,-14.53,14.53,14.20,13.68,2.74,2.74,2.75
27.23,-11.64,-14.39,-11.64,-14.39,14.38,14.06,13.99,2.74,2.74,2.75
27.50,-11.49,-14.24,-11.49,-14.24,14.23,13.92,14.30,2.74,2.74,2.75
27.77,-11.35,-14.09,-11.35,-14.09,14.08,13.78,14.61,2.74,2.74,2.74
28.05,-11.20,-13.94,-11.20,-13.94,13.94,13.65,14.92,2.74,2.74,2.74
28.33,-11.05,-13.78,-11.05,-13.78,13.79,13.51,15.22,2.74,2.74,2.73
28.62,-10.90,-13.63,-10.90,-13.63,13.65,13.38,15.51,2.75,2.75,2.73
28.90,-10.75,-13.49,-10.75,-13.49,13.51,13.25,15.79,2.76,2.75,2.74
29.19,-10.61,-13.34,-10.61,-13.35,13.36,13.12,16.05,2.75,2.74,2.73
29.48,-10.48,-13.22,-10.48,-13.22,13.21,12.99,16.28,2.73,2.73,2.74
29.78,-10.35,-13.08,-10.35,-13.08,13.06,12.86,16.49,2.70,2.71,2.73
30.08,-10.20,-12.94,-10.19,-12.93,12.90,12.73,16.67,2.70,2.71,2.74
30.38,-10.02,-12.75,-10.02,-12.75,12.74,12.59,16.81,2.72,2.72,2.73
30.68,-9.83,-12.56,-9.84,-12.57,12.58,12.46,16.91,2.75,2.74,2.73
30.99,-9.65,-12.38,-9.66,-12.39,12.41,12.33,16.96,2.76,2.75,2.73
31.30,-9.50,-12.22,-9.50,-12.23,12.24,12.19,16.97,2.74,2.74,2.72
31.61,-9.35,-12.07,-9.35,-12.07,12.07,12.05,16.93,2.72,2.72,2.72
31.93,-9.20,-11.92,-9.19,-11.91,11.90,11.91,16.84,2.69,2.70,2.72
32.24,-9.03,-11.74,-9.03,-11.74,11.73,11.77,16.71,2.70,2.71,2.71
32.57,-8.85,-11.56,-8.85,-11.56,11.57,11.62,16.54,2.72,2.72,2.71
32.89,-8.68,-11.39,-8.69,-11.39,11.41,11.47,16.33,2.73,2.73,2.71
33.22,-8.53,-11.23,-8.54,-11.24,11.25,11.32,16.09,2.72,2.71,2.70
33.55,-8.40,-11.10,-8.40,-11.09,11.09,11.17,15.83,2.69,2.69,2.70
33.89,-8.26,-10.95,-8.25,-10.95,10.93,11.01,15.55,2.67,2.68,2.69
34.23,-8.10,-10.79,-8.10,-10.79,10.77,10.85,15.25,2.67,2.68,2.69
34.57,-7.93,-10.61,-7.93,-10.61,10.62,10.69,14.94,2.69,2.69,2.68
34.92,-7.75,-10.43,-7.76,-10.44,10.46,10.53,14.62,2.71,2.69,2.68
35.27,-7.61,-10.28,-7.62,-10.29,10.30,10.36,14.29,2.68,2.68,2.67
35.62,-7.47,-10.14,-7.47,-10.14,10.13,10.20,13.97,2.66,2.66,2.67
35.97,-7.34,-10.01,-7.32,-9.99,9.97,10.03,13.64,2.63,2.65,2.67
36.33,-7.15,-9.82,-7.15,-9.81,9.81,9.86,13.32,2.66,2.66,2.67
36.70,-6.96,-9.62,-6.97,-9.63,9.65,9.69,13.00,2.69,2.68,2.66
37.06,-6.78,-9.44,-6.80,-9.46,9.49,9.52,12.68,2.71,2.69,2.66
37.43,-6.66,-9.33,-6.66,-9.32,9.34,9.35,12.36,2.68,2.68,2.67
37.81,-6.53,-9.20,-6.52,-9.19,9.18,9.18,12.05,2.65,2.66,2.67
38.19,-6.38,-9.04,-6.38,-9.05,9.03,9.01,11.75,2.64,2.65,2.66
38.57,-6.21,-8.88,-6.21,-8.88,8.87,8.85,11.45,2.66,2.66,2.67
38.95,-6.04,-8.72,-6.04,-8.72,8.71,8.68,11.16,2.67,2.67,2.68
39.34,-5.88,-8.55,-5.88,-8.56,8.55,8.51,10.88,2.67,2.67,2.67
39.74,-5.72,-8.39,-5.72,-8.39,8.39,8.35,10.60,2.66,2.67,2.67
40.14,-5.56,-8.23,-5.55,-8.22,8.22,8.19,10.32,2.66,2.66,2.67
40.54,-5.38,-8.05,-5.38,-8.05,8.05,8.03,10.06,2.67,2.67,2.67
40.94,-5.21,-7.87,-5.21,-7.88,7.89,7.87,9.79,2.68,2.68,2.66
41.35,-5.05,-7.71,-5.05,-7.71,7.73,7.71,9.54,2.68,2.69,2.66
41.76,-4.90,-7.55,-4.90,-7.56,7.58,7.55,9.29,2.68,2.68,2.65
42.18,-4.77,-7.42,-4.78,-7.42,7.42,7.40,9.04,2.65,2.65,2.65
42.60,-4.65,-7.29,-4.65,-7.29,7.27,7.25,8.80,2.62,2.62,2.64
43.03,-4.53,-7.16,-4.51,-7.15,7.11,7.11,8.57,2.58,2.60,2.63
43.46,-4.36,-6.98,-4.36,-6.98,6.97,6.96,8.34,2.60,2.60,2.62
43.90,-4.20,-6.80,-4.21,-6.81,6.82,6.82,8.11,2.61,2.61,2.60
44.33,-4.06,-6.64,-4.06,-6.64,6.67,6.68,7.89,2.61,2.61,2.58
44.78,-3.93,-6.49,-3.94,-6.50,6.52,6.54,7.68,2.59,2.58,2.56
45.23,-3.82,-6.37,-3.82,-6.37,6.37,6.41,7.47,2.55,2.55,2.55
45.68,-3.71,-6.25,-3.71,-6.24,6.23,6.28,7.26,2.52,2.53,2.54
46.13,-3.59,-6.11,-3.58,-6.10,6.09,6.15,7.06,2.50,2.52,2.52
46.60,-3.44,-5.96,-3.45,-5.96,5.96,6.02,6.86,2.52,2.52,2.52
47.06,-3.31,-5.81,-3.33,-5.84,5.84,5.90,6.66,2.53,2.50,2.50
47.53,-3.23,-5.72,-3.23,-5.73,5.72,5.77,6.47,2.49,2.49,2.49
48.01,-3.16,-5.65,-3.12,-5.60,5.61,5.66,6.28,2.45,2.50,2.49
48.49,-3.01,-5.48,-3.01,-5.48,5.51,5.54,6.10,2.49,2.50,2.47
48.97,-2.86,-5.31,-2.92,-5.37,5.40,5.43,5.91,2.53,2.47,2.45
49.46,-2.86,-5.29,-2.86,-5.29,5.29,5.31,5.74,2.43,2.43,2.43
49.96,-2.87,-5.28,-2.82,-5.24,5.19,5.21,5.56,2.32,2.37,2.41
50.46,-2.76,-5.16,-2.76,-5.16,5.10,5.10,5.39,2.34,2.34,2.40
50.96,-2.64,-5.03,-2.63,-5.01,5.02,5.00,5.22,2.38,2.40,2.39
51.47,-2.50,-4.87,-2.49,-4.86,4.94,4.89,5.06,2.44,2.45,2.37
51.99,-2.35,-4.71,-2.44,-4.80,4.86,4.79,4.90,2.51,2.42,2.36
52.51,-2.43,-4.78,-2.42,-4.78,4.77,4.70,4.74,2.34,2.35,2.35
53.03,-2.49,-4.84,-2.41,-4.75,4.69,4.60,4.58,2.20,2.29,2.35
53.56,-2.34,-4.67,-2.35,-4.68,4.61,4.51,4.43,2.27,2.26,2.33
54.10,-2.20,-4.52,-2.22,-4.54,4.54,4.42,4.28,2.34,2.32,2.32
54.64,-2.10,-4.40,-2.11,-4.42,4.47,4.33,4.14,2.37,2.36,2.30
55.18,-2.04,-4.34,-2.07,-4.36,4.39,4.24,4.00,2.35,2.33,2.30
55.74,-2.06,-4.34,-2.03,-4.32,4.31,4.15,3.86,2.25,2.28,2.28
56.29,-2.01,-4.28,-1.98,-4.25,4.22,4.07,3.73,2.21,2.24,2.27
56.86,-1.88,-4.14,-1.90,-4.16,4.14,3.99,3.60,2.26,2.24,2.26
57.42,-1.81,-4.04,-1.82,-4.06,4.07,3.91,3.47,2.26,2.25,2.23
58.00,-1.75,-3.97,-1.75,-3.98,4.00,3.83,3.35,2.25,2.25,2.22
58.58,-1.72,-3.93,-1.71,-3.92,3.93,3.75,3.24,2.21,2.22,2.21
59.16,-1.67,-3.86,-1.66,-3.86,3.86,3.68,3.12,2.19,2.19,2.19
59.76,-1.61,-3.78,-1.63,-3.80,3.78,3.60,3.01,2.17,2.15,2.17
60.35,-1.59,-3.72,-1.59,-3.73,3.71,3.53,2.91,2.12,2.12,2.13
60.96,-1.58,-3.67,-1.55,-3.65,3.64,3.46,2.81,2.06,2.08,2.09
61.57,-1.51,-3.56,-1.52,-3.57,3.57,3.39,2.72,2.06,2.05,2.05
62.18,-1.46,-3.47,-1.48,-3.49,3.50,3.33,2.62,2.04,2.01,2.01
62.80,-1.46,-3.42,-1.44,-3.40,3.42,3.26,2.54,1.96,1.98,1.96
63.43,-1.42,-3.34,-1.41,-3.33,3.34,3.20,2.45,1.92,1.93,1.92
64.07,-1.37,-3.24,-1.39,-3.27,3.26,3.13,2.38,1.89,1.87,1.87
64.71,-1.37,-3.20,-1.37,-3.20,3.18,3.07,2.30,1.81,1.82,1.83
65.35,-1.35,-3.14,-1.34,-3.13,3.11,3.01,2.23,1.76,1.76,1.79
66.01,-1.32,-3.06,-1.30,-3.04,3.03,2.95,2.16,1.71,1.73,1.74
66.67,-1.23,-2.92,-1.24,-2.94,2.95,2.89,2.10,1.72,1.70,1.69
67.33,-1.18,-2.82,-1.20,-2.85,2.87,2.84,2.04,1.69,1.67,1.64
68.01,-1.18,-2.78,-1.18,-2.78,2.79,2.78,1.99,1.61,1.61,1.60
68.69,-1.18,-2.73,-1.16,-2.71,2.71,2.72,1.93,1.53,1.54,1.55
69.37,-1.15,-2.65,-1.14,-2.64,2.63,2.67,1.89,1.48,1.49,1.50
70.07,-1.09,-2.54,-1.11,-2.56,2.56,2.62,1.84,1.47,1.45,1.45
70.77,-1.08,-2.48,-1.08,-2.48,2.49,2.57,1.79,1.41,1.41,1.40
71.48,-1.08,-2.43,-1.08,-2.42,2.43,2.52,1.75,1.35,1.35,1.35
72.19,-1.08,-2.36,-1.08,-2.36,2.37,2.47,1.71,1.29,1.29,1.28
72.91,-1.08,-2.30,-1.08,-2.31,2.30,2.42,1.68,1.22,1.22,1.22
73.64,-1.08,-2.25,-1.08,-2.25,2.24,2.37,1.64,1.16,1.16,1.17
74.38,-1.08,-2.19,-1.08,-2.19,2.19,2.33,1.61,1.10,1.10,1.11
75.12,-1.08,-2.13,-1.08,-2.13,2.13,2.28,1.58,1.05,1.05,1.05
75.87,-1.08,-2.07,-1.08,-2.08,2.08,2.24,1.55,1.00,1.00,0.99
76.63,-1.08,-2.02,-1.08,-2.02,2.02,2.19,1.52,0.94,0.94,0.94
77.40,-1.08,-1.97,-1.08,-1.97,1.97,2.15,1.49,0.89,0.89,0.89
78.17,-1.08,-1.91,-1.08,-1.92,1.92,2.11,1.46,0.84,0.84,0.83
78.95,-1.08,-1.87,-1.08,-1.87,1.87,2.07,1.43,0.79,0.79,0.79
79.74,-1.08,-1.82,-1.08,-1.82,1.82,2.03,1.41,0.74,0.74,0.74
80.54,-1.08,-1.77,-1.08,-1.77,1.77,1.99,1.38,0.69,0.69,0.69
81.35,-1.08,-1.72,-1.09,-1.73,1.71,1.95,1.36,0.63,0.62,0.64
82.16,-1.08,-1.67,-1.08,-1.67,1.65,1.91,1.34,0.57,0.57,0.59
82.98,-1.08,-1.63,-1.06,-1.60,1.59,1.88,1.31,0.51,0.53,0.55
83.81,-1.01,-1.51,-1.03,-1.53,1.53,1.84,1.29,0.52,0.50,0.50
84.65,-0.99,-1.44,-1.00,-1.46,1.47,1.80,1.27,0.48,0.47,0.45
85.50,-0.99,-1.40,-0.98,-1.39,1.42,1.77,1.25,0.43,0.43,0.41
86.35,-0.99,-1.35,-0.98,-1.34,1.37,1.74,1.22,0.38,0.39,0.36
87.22,-0.99,-1.30,-0.99,-1.31,1.32,1.70,1.20,0.33,0.32,0.31
88.09,-0.99,-1.25,-1.02,-1.28,1.27,1.67,1.18,0.28,0.25,0.26
88.97,-1.08,-1.28,-1.05,-1.26,1.23,1.64,1.16,0.15,0.18,0.20
89.86,-1.08,-1.23,-1.08,-1.23,1.20,1.61,1.14,0.12,0.12,0.15
90.76,-1.08,-1.18,-1.08,-1.18,1.17,1.57,1.12,0.09,0.08,0.10
91.66,-1.07,-1.12,-1.07,-1.12,1.13,1.54,1.10,0.06,0.06,0.05
92.58,-1.07,-1.06,-1.08,-1.07,1.10,1.52,1.08,0.03,0.03,-0.01
93.51,-1.09,-1.03,-1.10,-1.05,1.07,1.49,1.06,-0.02,-0.03,-0.06
94.44,-1.14,-1.04,-1.13,-1.03,1.03,1.46,1.04,-0.11,-0.10,-0.10
95.39,-1.17,-1.02,-1.16,-1.01,0.99,1.43,1.02,-0.18,-0.17,-0.15
96.34,-1.16,-0.96,-1.18,-0.98,0.95,1.40,0.99,-0.21,-0.23,-0.20
97.30,-1.18,-0.93,-1.18,-0.93,0.91,1.38,0.97,-0.27,-0.27,-0.25
98.28,-1.19,-0.89,-1.16,-0.87,0.86,1.35,0.95,-0.33,-0.30,-0.30
99.26,-1.13,-0.79,-1.15,-0.81,0.81,1.32,0.93,-0.32,-0.34,-0.34
100.25,-1.13,-0.74,-1.14,-0.75,0.76,1.30,0.91,-0.37,-0.38,-0.39
101.25,-1.15,-0.71,-1.14,-0.70,0.71,1.27,0.89,-0.44,-0.43,-0.44
102.27,-1.16,-0.67,-1.16,-0.67,0.67,1.25,0.88,-0.49,-0.49,-0.49
103.29,-1.17,-0.63,-1.17,-0.64,0.63,1.23,0.86,-0.54,-0.54,-0.54
104.32,-1.19,-0.61,-1.18,-0.60,0.61,1.20,0.84,-0.58,-0.57,-0.58
105.37,-1.21,-0.58,-1.21,-0.58,0.61,1.18,0.82,-0.60,-0.60,-0.63
106.42,-1.25,-0.57,-1.27,-0.59,0.61,1.16,0.80,-0.64,-0.66,-0.68
107.48,-1.35,-0.61,-1.35,-0.62,0.62,1.14,0.78,-0.73,-0.73,-0.74
108.56,-1.46,-0.67,-1.43,-0.64,0.63,1.11,0.76,-0.83,-0.79,-0.79
109.64,-1.50,-0.66,-1.50,-0.66,0.65,1.09,0.74,-0.85,-0.85,-0.84
110.74,-1.53,-0.63,-1.58,-0.68,0.67,1.07,0.73,-0.86,-0.91,-0.90
111.85,-1.66,-0.72,-1.64,-0.70,0.68,1.05,0.71,-0.98,-0.96,-0.94
112.97,-1.74,-0.74,-1.70,-0.71,0.70,1.03,0.69,-1.04,-1.00,-1.00
114.10,-1.74,-0.69,-1.75,-0.70,0.71,1.01,0.67,-1.03,-1.04,-1.05
115.24,-1.76,-0.66,-1.79,-0.69,0.71,1.00,0.66,-1.05,-1.08,-1.10
116.39,-1.84,-0.69,-1.84,-0.69,0.70,0.98,0.64,-1.14,-1.14,-1.15
117.55,-1.91,-0.72,-1.89,-0.70,0.68,0.96,0.63,-1.23,-1.21,-1.19
118.73,-1.93,-0.70,-1.93,-0.70,0.66,0.94,0.61,-1.27,-1.27,-1.23
119.92,-1.92,-0.66,-1.93,-0.66,0.64,0.92,0.60,-1.28,-1.29,-1.26
121.12,-1.91,-0.61,-1.91,-0.61,0.62,0.91,0.58,-1.29,-1.29,-1.30
122.33,-1.90,-0.57,-1.89,-0.56,0.61,0.89,0.57,-1.29,-1.28,-1.33
123.55,-1.89,-0.53,-1.90,-0.54,0.59,0.87,0.56,-1.30,-1.31,-1.36
124.79,-1.90,-0.51,-1.95,-0.56,0.58,0.86,0.54,-1.32,-1.37,-1.39
126.03,-2.05,-0.63,-2.00,-0.59,0.57,0.84,0.53,-1.48,-1.44,-1.42
127.29,-2.06,-0.62,-2.05,-0.60,0.56,0.83,0.52,-1.50,-1.49,-1.44
128.57,-2.06,-0.58,-2.07,-0.59,0.56,0.81,0.51,-1.50,-1.51,-1.48
129.85,-2.05,-0.54,-2.06,-0.56,0.56,0.80,0.50,-1.49,-1.51,-1.51
131.15,-2.08,-0.54,-2.09,-0.55,0.56,0.78,0.49,-1.52,-1.53,-1.54
132.46,-2.12,-0.55,-2.11,-0.54,0.55,0.77,0.48,-1.57,-1.55,-1.57
133.79,-2.14,-0.54,-2.13,-0.54,0.55,0.76,0.47,-1.59,-1.59,-1.60
135.12,-2.14,-0.51,-2.16,-0.53,0.54,0.74,0.47,-1.60,-1.62,-1.63
136.48,-2.20,-0.55,-2.20,-0.54,0.54,0.73,0.46,-1.66,-1.66,-1.65
137.84,-2.24,-0.55,-2.24,-0.55,0.54,0.72,0.45,-1.70,-1.70,-1.69
139.22,-2.29,-0.57,-2.28,-0.56,0.56,0.70,0.44,-1.73,-1.72,-1.72
140.61,-2.31,-0.56,-2.31,-0.56,0.57,0.69,0.44,-1.74,-1.74,-1.75
142.02,-2.31,-0.54,-2.33,-0.56,0.58,0.68,0.43,-1.73,-1.75,-1.77
143.44,-2.38,-0.58,-2.37,-0.57,0.59,0.67,0.42,-1.79,-1.78,-1.80
144.87,-2.41,-0.57,-2.42,-0.59,0.58,0.66,0.42,-1.83,-1.84,-1.84
146.32,-2.48,-0.60,-2.47,-0.60,0.57,0.65,0.41,-1.91,-1.90,-1.88
147.78,-2.51,-0.60,-2.50,-0.59,0.55,0.63,0.41,-1.96,-1.95,-1.91
149.26,-2.51,-0.55,-2.51,-0.55,0.52,0.62,0.40,-1.99,-1.99,-1.96
150.75,-2.51,-0.49,-2.51,-0.49,0.49,0.61,0.40,-2.02,-2.02,-2.02
152.26,-2.51,-0.42,-2.51,-0.43,0.45,0.60,0.40,-2.06,-2.06,-2.09
153.78,-2.52,-0.36,-2.53,-0.37,0.40,0.59,0.39,-2.12,-2.12,-2.16
155.32,-2.57,-0.34,-2.56,-0.33,0.35,0.58,0.39,-2.22,-2.21,-2.23
156.88,-2.60,-0.29,-2.61,-0.30,0.30,0.57,0.38,-2.30,-2.32,-2.31
158.44,-2.67,-0.28,-2.66,-0.27,0.24,0.57,0.38,-2.43,-2.42,-2.39
160.03,-2.70,-0.23,-2.69,-0.22,0.20,0.56,0.38,-2.50,-2.49,-2.47
161.63,-2.70,-0.16,-2.70,-0.16,0.16,0.55,0.37,-2.54,-2.54,-2.54
163.24,-2.70,-0.10,-2.70,-0.10,0.12,0.54,0.37,-2.58,-2.58,-2.60
164.88,-2.70,-0.05,-2.72,-0.07,0.09,0.53,0.37,-2.61,-2.63,-2.65
166.53,-2.75,-0.05,-2.75,-0.05,0.06,0.52,0.37,-2.69,-2.69,-2.70
168.19,-2.79,-0.05,-2.78,-0.04,0.04,0.52,0.36,-2.75,-2.74,-2.74
169.87,-2.82,-0.04,-2.81,-0.04,0.03,0.51,0.36,-2.79,-2.78,-2.78
171.57,-2.82,-0.02,-2.82,-0.03,0.04,0.50,0.36,-2.78,-2.79,-2.80
173.29,-2.83,-0.02,-2.84,-0.03,0.04,0.49,0.36,-2.79,-2.80,-2.81
175.02,-2.87,-0.05,-2.87,-0.05,0.05,0.49,0.35,-2.82,-2.82,-2.82
176.77,-2.92,-0.09,-2.91,-0.08,0.07,0.48,0.35,-2.85,-2.84,-2.83
178.54,-2.93,-0.09,-2.93,-0.10,0.08,0.47,0.35,-2.85,-2.85,-2.84
180.32,-2.93,-0.10,-2.93,-0.10,0.09,0.47,0.35,-2.84,-2.84,-2.83
182.13,-2.92,-0.10,-2.91,-0.09,0.10,0.46,0.34,-2.83,-2.82,-2.82
183.95,-2.91,-0.08,-2.91,-0.09,0.10,0.46,0.34,-2.81,-2.81,-2.83
185.79,-2.90,-0.07,-2.93,-0.09,0.10,0.45,0.34,-2.80,-2.83,-2.83
187.65,-2.97,-0.12,-2.95,-0.10,0.10,0.45,0.34,-2.87,-2.85,-2.85
189.52,-2.97,-0.11,-2.96,-0.10,0.09,0.44,0.34,-2.88,-2.87,-2.86
191.42,-2.96,-0.08,-2.96,-0.08,0.08,0.44,0.34,-2.88,-2.88,-2.88
193.33,-2.94,-0.04,-2.96,-0.07,0.07,0.43,0.34,-2.87,-2.89,-2.90
195.27,-2.98,-0.06,-2.98,-0.06,0.06,0.43,0.33,-2.92,-2.92,-2.92
197.22,-3.01,-0.07,-2.99,-0.05,0.04,0.42,0.33,-2.97,-2.95,-2.94
199.19,-3.00,-0.04,-3.00,-0.04,0.03,0.42,0.33,-2.97,-2.98,-2.96
201.18,-2.99,-0.01,-2.99,-0.01,0.01,0.42,0.33,-2.98,-2.98,-2.98
203.19,-2.99,0.01,-2.98,0.01,0.00,0.41,0.33,-2.99,-2.98,-3.00
205.23,-2.98,0.04,-3.00,0.02,-0.00,0.41,0.33,-2.98,-3.00,-3.02
207.28,-3.02,0.01,-3.02,0.01,-0.00,0.41,0.33,-3.02,-3.02,-3.03
209.35,-3.07,-0.02,-3.05,0.00,0.00,0.40,0.33,-3.07,-3.04,-3.05
211.44,-3.08,-0.00,-3.08,-0.01,0.01,0.40,0.33,-3.07,-3.07,-3.08
213.56,-3.09,-0.00,-3.11,-0.02,0.02,0.40,0.33,-3.07,-3.09,-3.09
215.69,-3.15,-0.05,-3.14,-0.04,0.03,0.40,0.33,-3.12,-3.11,-3.10
217.85,-3.19,-0.08,-3.18,-0.06,0.04,0.40,0.33,-3.15,-3.13,-3.11
220.03,-3.19,-0.07,-3.20,-0.07,0.05,0.39,0.33,-3.14,-3.15,-3.12
222.23,-3.20,-0.05,-3.20,-0.06,0.06,0.39,0.33,-3.14,-3.14,-3.15
224.45,-3.20,-0.06,-3.19,-0.05,0.08,0.39,0.33,-3.13,-3.12,-3.14
226.70,-3.20,-0.06,-3.20,-0.06,0.09,0.39,0.33,-3.11,-3.11,-3.14
228.96,-3.19,-0.06,-3.21,-0.08,0.10,0.39,0.33,-3.09,-3.11,-3.13
231.25,-3.24,-0.12,-3.24,-0.12,0.11,0.39,0.33,-3.13,-3.12,-3.12
233.57,-3.27,-0.16,-3.25,-0.14,0.12,0.39,0.34,-3.15,-3.13,-3.11
235.90,-3.26,-0.16,-3.26,-0.16,0.14,0.39,0.34,-3.13,-3.12,-3.10
238.26,-3.24,-0.15,-3.25,-0.16,0.15,0.39,0.34,-3.09,-3.09,-3.09
240.64,-3.22,-0.16,-3.23,-0.17,0.17,0.40,0.34,-3.06,-3.06,-3.06
243.05,-3.21,-0.18,-3.20,-0.17,0.18,0.40,0.34,-3.03,-3.02,-3.03
245.48,-3.19,-0.18,-3.18,-0.18,0.19,0.40,0.35,-3.00,-2.99,-3.01
247.93,-3.16,-0.18,-3.18,-0.20,0.21,0.40,0.35,-2.95,-2.97,-2.98
250.41,-3.18,-0.22,-3.19,-0.23,0.23,0.41,0.35,-2.95,-2.95,-2.96
252.92,-3.22,-0.29,-3.20,-0.26,0.26,0.41,0.36,-2.96,-2.93,-2.93
255.45,-3.21,-0.30,-3.21,-0.30,0.30,0.41,0.36,-2.91,-2.91,-2.91
258.00,-3.20,-0.31,-3.22,-0.33,0.34,0.42,0.36,-2.86,-2.88,-2.89
260.58,-3.24,-0.37,-3.24,-0.37,0.38,0.42,0.37,-2.86,-2.86,-2.87
263.19,-3.28,-0.44,-3.27,-0.42,0.42,0.43,0.37,-2.86,-2.85,-2.84
265.82,-3.29,-0.47,-3.29,-0.47,0.46,0.44,0.38,-2.83,-2.83,-2.82
268.48,-3.30,-0.50,-3.30,-0.51,0.50,0.44,0.38,-2.80,-2.80,-2.80
271.16,-3.30,-0.53,-3.30,-0.53,0.53,0.45,0.39,-2.77,-2.77,-2.77
273.87,-3.31,-0.56,-3.31,-0.56,0.56,0.46,0.39,-2.75,-2.75,-2.75
276.61,-3.31,-0.59,-3.31,-0.59,0.59,0.47,0.40,-2.72,-2.72,-2.72
279.38,-3.31,-0.62,-3.31,-0.62,0.62,0.48,0.41,-2.69,-2.69,-2.69
282.17,-3.30,-0.63,-3.30,-0.64,0.64,0.49,0.41,-2.66,-2.66,-2.67
284.99,-3.30,-0.67,-3.30,-0.66,0.66,0.50,0.42,-2.64,-2.64,-2.63
287.84,-3.29,-0.68,-3.29,-0.68,0.68,0.51,0.43,-2.61,-2.61,-2.61
290.72,-3.28,-0.70,-3.28,-0.70,0.70,0.52,0.43,-2.58,-2.59,-2.58
293.63,-3.27,-0.72,-3.27,-0.72,0.71,0.53,0.44,-2.56,-2.56,-2.55
296.57,-3.25,-0.73,-3.25,-0.73,0.73,0.55,0.45,-2.52,-2.52,-2.52
299.53,-3.24,-0.75,-3.24,-0.75,0.76,0.56,0.46,-2.49,-2.49,-2.49
302.53,-3.23,-0.76,-3.22,-0.76,0.78,0.58,0.47,-2.45,-2.44,-2.47
305.55,-3.22,-0.79,-3.22,-0.79,0.81,0.60,0.48,-2.41,-2.41,-2.43
308.61,-3.21,-0.80,-3.24,-0.83,0.84,0.61,0.49,-2.37,-2.40,-2.41
311.69,-3.28,-0.90,-3.26,-0.88,0.87,0.63,0.50,-2.41,-2.39,-2.38
314.81,-3.30,-0.94,-3.29,-0.93,0.91,0.65,0.51,-2.40,-2.38,-2.36
317.96,-3.29,-0.95,-3.30,-0.96,0.94,0.68,0.52,-2.36,-2.36,-2.34
321.14,-3.29,-0.96,-3.29,-0.97,0.96,0.70,0.54,-2.33,-2.33,-2.33
324.35,-3.29,-0.98,-3.29,-0.98,0.99,0.72,0.55,-2.30,-2.31,-2.31
327.59,-3.30,-1.00,-3.30,-1.00,1.01,0.75,0.56,-2.29,-2.29,-2.30
330.87,-3.30,-1.01,-3.30,-1.02,1.02,0.77,0.58,-2.28,-2.28,-2.29
334.18,-3.30,-1.03,-3.30,-1.03,1.03,0.80,0.59,-2.27,-2.27,-2.27
337.52,-3.30,-1.04,-3.30,-1.04,1.04,0.83,0.60,-2.26,-2.26,-2.26
340.90,-3.30,-1.05,-3.30,-1.05,1.05,0.86,0.62,-2.25,-2.25,-2.25
344.30,-3.30,-1.06,-3.30,-1.06,1.06,0.88,0.64,-2.24,-2.24,-2.24
347.75,-3.30,-1.06,-3.30,-1.06,1.06,0.91,0.65,-2.24,-2.24,-2.24
351.23,-3.30,-1.07,-3.30,-1.07,1.06,0.94,0.67,-2.24,-2.24,-2.23
354.74,-3.30,-1.06,-3.30,-1.06,1.06,0.97,0.69,-2.24,-2.24,-2.24
358.28,-3.29,-1.06,-3.29,-1.06,1.06,1.00,0.70,-2.23,-2.23,-2.23
361.87,-3.29,-1.06,-3.29,-1.06,1.06,1.03,0.72,-2.23,-2.23,-2.23
365.49,-3.28,-1.06,-3.28,-1.05,1.06,1.06,0.74,-2.22,-2.21,-2.22
369.14,-3.28,-1.05,-3.28,-1.05,1.07,1.08,0.76,-2.21,-2.21,-2.23
372.83,-3.27,-1.04,-3.29,-1.06,1.08,1.11,0.78,-2.19,-2.21,-2.23
376.56,-3.32,-1.08,-3.31,-1.08,1.09,1.13,0.80,-2.23,-2.23,-2.24
380.33,-3.35,-1.12,-3.33,-1.10,1.09,1.15,0.82,-2.26,-2.24,-2.23
384.13,-3.34,-1.11,-3.35,-1.11,1.09,1.16,0.84,-2.25,-2.25,-2.23
387.97,-3.34,-1.10,-3.34,-1.11,1.09,1.18,0.86,-2.25,-2.25,-2.24
391.85,-3.33,-1.08,-3.34,-1.09,1.08,1.19,0.88,-2.25,-2.26,-2.25
395.77,-3.33,-1.09,-3.32,-1.08,1.07,1.19,0.91,-2.27,-2.26,-2.24
399.73,-3.30,-1.05,-3.29,-1.05,1.05,1.19,0.93,-2.25,-2.25,-2.25
403.72,-3.26,-1.01,-3.27,-1.01,1.03,1.19,0.95,-2.23,-2.24,-2.25
407.76,-3.24,-0.97,-3.25,-0.99,1.01,1.18,0.97,-2.23,-2.24,-2.27
411.84,-3.25,-0.98,-3.25,-0.98,0.99,1.17,0.99,-2.26,-2.25,-2.27
415.96,-3.25,-0.98,-3.25,-0.98,0.98,1.15,1.01,-2.27,-2.27,-2.27
420.12,-3.25,-0.98,-3.25,-0.98,0.98,1.13,1.03,-2.27,-2.27,-2.27
424.32,-3.24,-0.97,-3.24,-0.98,0.97,1.11,1.05,-2.27,-2.27,-2.27
428.56,-3.23,-0.97,-3.23,-0.97,0.97,1.08,1.07,-2.26,-2.26,-2.26
432.85,-3.22,-0.97,-3.22,-0.96,0.97,1.05,1.09,-2.26,-2.25,-2.25
437.18,-3.19,-0.95,-3.19,-0.96,0.95,1.02,1.11,-2.24,-2.24,-2.24
441.55,-3.15,-0.95,-3.16,-0.95,0.93,0.99,1.13,-2.22,-2.23,-2.20
445.96,-3.11,-0.94,-3.10,-0.93,0.91,0.96,1.14,-2.20,-2.19,-2.17
450.42,-3.04,-0.90,-3.02,-0.89,0.88,0.92,1.16,-2.16,-2.14,-2.14
