frequency,raw,error,smoothed,error_smoothed,equalization,parametric_eq,fixed_band_eq,equalized_raw,equalized_smoothed,target
20.00,5.56,0.55,5.55,0.52,-0.52,-0.94,-0.74,5.04,5.03,5.01
20.20,5.59,0.55,5.60,0.55,-0.55,-0.95,-0.76,5.04,5.05,5.04
20.40,5.64,0.56,5.65,0.58,-0.58,-0.97,-0.78,5.06,5.07,5.07
20.61,5.70,0.61,5.70,0.61,-0.61,-0.99,-0.80,5.10,5.09,5.09
20.81,5.76,0.64,5.75,0.63,-0.63,-1.00,-0.82,5.13,5.11,5.12
21.02,5.79,0.64,5.79,0.66,-0.66,-1.02,-0.85,5.13,5.13,5.15
21.23,5.84,0.68,5.84,0.69,-0.69,-1.04,-0.87,5.15,5.14,5.16
21.44,5.88,0.70,5.88,0.73,-0.73,-1.05,-0.89,5.15,5.16,5.17
21.66,5.92,0.74,5.93,0.76,-0.76,-1.07,-0.92,5.17,5.17,5.18
21.87,5.97,0.78,5.97,0.79,-0.79,-1.09,-0.94,5.17,5.18,5.18
22.09,6.00,0.80,6.01,0.82,-0.82,-1.11,-0.97,5.17,5.18,5.19
22.31,6.05,0.85,6.05,0.86,-0.86,-1.12,-0.99,5.19,5.19,5.19
22.54,6.08,0.89,6.09,0.90,-0.90,-1.14,-1.02,5.19,5.19,5.19
22.76,6.13,0.94,6.13,0.94,-0.94,-1.16,-1.05,5.20,5.19,5.19
22.99,6.16,0.98,6.16,0.97,-0.97,-1.18,-1.08,5.19,5.19,5.18
23.22,6.20,1.02,6.20,1.01,-1.01,-1.20,-1.10,5.19,5.19,5.18
23.45,6.25,1.07,6.24,1.05,-1.05,-1.22,-1.13,5.20,5.19,5.18
23.69,6.28,1.10,6.27,1.09,-1.09,-1.24,-1.16,5.19,5.18,5.18
23.92,6.31,1.13,6.31,1.13,-1.13,-1.26,-1.19,5.18,5.18,5.18
24.16,6.34,1.16,6.35,1.17,-1.17,-1.28,-1.23,5.18,5.18,5.18
24.40,6.37,1.19,6.38,1.21,-1.21,-1.30,-1.26,5.17,5.18,5.18
24.65,6.40,1.23,6.42,1.24,-1.24,-1.32,-1.29,5.16,5.17,5.17
24.89,6.44,1.26,6.45,1.28,-1.28,-1.34,-1.32,5.16,5.17,5.17
25.14,6.49,1.31,6.49,1.32,-1.32,-1.36,-1.35,5.17,5.17,5.17
25.39,6.53,1.35,6.52,1.35,-1.35,-1.38,-1.39,5.18,5.17,5.17
25.65,6.55,1.38,6.55,1.38,-1.38,-1.40,-1.42,5.17,5.17,5.17
25.91,6.58,1.42,6.59,1.42,-1.42,-1.42,-1.45,5.16,5.17,5.16
26.16,6.63,1.46,6.62,1.45,-1.45,-1.44,-1.49,5.17,5.16,5.16
26.43,6.67,1.51,6.65,1.49,-1.49,-1.47,-1.52,5.19,5.16,5.16
26.69,6.67,1.51,6.68,1.52,-1.52,-1.49,-1.56,5.15,5.16,5.16
26.96,6.71,1.55,6.71,1.56,-1.56,-1.51,-1.59,5.16,5.15,5.16
27.23,6.74,1.59,6.74,1.59,-1.59,-1.53,-1.62,5.15,5.15,5.15
27.50,6.76,1.61,6.77,1.62,-1.62,-1.56,-1.66,5.14,5.15,5.15
27.77,6.80,1.66,6.80,1.65,-1.65,-1.58,-1.69,5.15,5.14,5.14
28.05,6.81,1.67,6.83,1.69,-1.69,-1.60,-1.72,5.13,5.14,5.14
28.33,6.85,1.72,6.86,1.72,-1.72,-1.63,-1.75,5.14,5.14,5.13
28.62,6.87,1.74,6.88,1.75,-1.75,-1.65,-1.78,5.12,5.13,5.13
28.90,6.90,1.77,6.91,1.78,-1.78,-1.67,-1.81,5.12,5.13,5.13
29.19,6.93,1.81,6.94,1.82,-1.82,-1.70,-1.84,5.12,5.12,5.12
29.48,6.97,1.85,6.97,1.85,-1.85,-1.72,-1.87,5.13,5.12,5.12
29.78,6.99,1.88,7.00,1.88,-1.88,-1.75,-1.89,5.11,5.11,5.11
30.08,7.03,1.92,7.02,1.92,-1.92,-1.77,-1.92,5.12,5.11,5.11
30.38,7.04,1.94,7.05,1.95,-1.95,-1.80,-1.94,5.10,5.10,5.10
30.68,7.09,1.99,7.08,1.98,-1.98,-1.82,-1.97,5.11,5.10,5.10
30.99,7.10,2.01,7.10,2.01,-2.01,-1.85,-1.99,5.09,5.09,5.09
31.30,7.13,2.05,7.13,2.04,-2.04,-1.88,-2.01,5.09,5.09,5.08
31.61,7.13,2.05,7.15,2.07,-2.07,-1.90,-2.03,5.07,5.08,5.08
31.93,7.17,2.10,7.17,2.10,-2.10,-1.93,-2.05,5.08,5.07,5.07
32.24,7.19,2.12,7.19,2.12,-2.12,-1.96,-2.06,5.06,5.07,5.06
32.57,7.23,2.17,7.21,2.15,-2.15,-1.98,-2.08,5.08,5.06,5.06
32.89,7.23,2.18,7.23,2.18,-2.18,-2.01,-2.09,5.06,5.05,5.05
33.22,7.23,2.19,7.25,2.21,-2.21,-2.04,-2.11,5.03,5.04,5.04
33.55,7.27,2.23,7.27,2.24,-2.24,-2.07,-2.12,5.04,5.04,5.04
33.89,7.27,2.24,7.29,2.26,-2.26,-2.09,-2.13,5.01,5.03,5.03
34.23,7.27,2.25,7.31,2.29,-2.29,-2.12,-2.14,4.99,5.02,5.02
34.57,7.32,2.31,7.32,2.31,-2.31,-2.15,-2.16,5.01,5.01,5.01
34.92,7.34,2.34,7.34,2.34,-2.34,-2.18,-2.17,5.01,5.00,5.00
35.27,7.37,2.38,7.35,2.36,-2.36,-2.21,-2.18,5.01,4.99,4.99
35.62,7.37,2.39,7.37,2.38,-2.38,-2.24,-2.19,4.99,4.98,4.98
35.97,7.41,2.44,7.38,2.41,-2.41,-2.26,-2.20,5.01,4.97,4.97
36.33,7.41,2.45,7.40,2.44,-2.44,-2.29,-2.21,4.98,4.96,4.96
36.70,7.41,2.46,7.42,2.46,-2.46,-2.32,-2.22,4.95,4.95,4.95
37.06,7.41,2.47,7.43,2.49,-2.49,-2.35,-2.24,4.93,4.94,4.94
37.43,7.41,2.48,7.45,2.51,-2.51,-2.38,-2.25,4.90,4.93,4.93
37.81,7.42,2.50,7.46,2.54,-2.54,-2.41,-2.27,4.88,4.92,4.92
38.19,7.46,2.55,7.48,2.57,-2.57,-2.44,-2.28,4.90,4.91,4.91
38.57,7.48,2.58,7.49,2.59,-2.59,-2.48,-2.30,4.89,4.90,4.90
38.95,7.51,2.62,7.50,2.61,-2.61,-2.51,-2.32,4.90,4.89,4.89
39.34,7.54,2.67,7.52,2.64,-2.64,-2.54,-2.34,4.91,4.88,4.87
39.74,7.55,2.69,7.53,2.66,-2.66,-2.57,-2.36,4.89,4.87,4.86
40.14,7.55,2.70,7.54,2.69,-2.69,-2.60,-2.38,4.87,4.86,4.85
40.54,7.55,2.71,7.56,2.71,-2.71,-2.63,-2.41,4.84,4.85,4.84
40.94,7.55,2.72,7.57,2.74,-2.74,-2.66,-2.43,4.81,4.83,4.83
41.35,7.60,2.78,7.59,2.77,-2.77,-2.70,-2.46,4.84,4.82,4.82
41.76,7.60,2.79,7.60,2.79,-2.79,-2.73,-2.49,4.81,4.81,4.81
42.18,7.60,2.80,7.61,2.82,-2.82,-2.76,-2.52,4.79,4.80,4.80
42.60,7.61,2.81,7.63,2.84,-2.84,-2.79,-2.55,4.76,4.78,4.79
43.03,7.65,2.87,7.64,2.87,-2.87,-2.83,-2.59,4.78,4.77,4.78
43.46,7.65,2.89,7.65,2.90,-2.90,-2.86,-2.63,4.76,4.75,4.76
43.90,7.65,2.91,7.67,2.93,-2.93,-2.89,-2.67,4.73,4.74,4.74
44.33,7.69,2.97,7.68,2.96,-2.96,-2.93,-2.71,4.74,4.73,4.72
44.78,7.69,2.99,7.70,2.99,-2.99,-2.96,-2.75,4.71,4.71,4.70
45.23,7.70,3.02,7.72,3.02,-3.02,-2.99,-2.80,4.68,4.69,4.68
45.68,7.74,3.07,7.73,3.06,-3.06,-3.03,-2.85,4.69,4.68,4.67
46.13,7.74,3.09,7.75,3.09,-3.09,-3.06,-2.90,4.65,4.66,4.65
46.60,7.79,3.15,7.77,3.13,-3.13,-3.10,-2.95,4.66,4.64,4.64
47.06,7.79,3.17,7.79,3.17,-3.17,-3.13,-3.00,4.62,4.62,4.62
47.53,7.79,3.19,7.81,3.22,-3.22,-3.17,-3.06,4.58,4.59,4.60
48.01,7.83,3.24,7.84,3.26,-3.26,-3.20,-3.12,4.57,4.57,4.59
48.49,7.83,3.27,7.86,3.31,-3.31,-3.24,-3.17,4.52,4.55,4.56
48.97,7.88,3.35,7.89,3.36,-3.36,-3.27,-3.24,4.53,4.53,4.53
49.46,7.88,3.38,7.91,3.41,-3.41,-3.31,-3.30,4.48,4.51,4.50
49.96,7.93,3.46,7.94,3.46,-3.46,-3.34,-3.36,4.48,4.48,4.47
50.46,7.97,3.52,7.96,3.50,-3.50,-3.38,-3.43,4.47,4.46,4.45
50.96,7.98,3.55,7.98,3.55,-3.55,-3.42,-3.49,4.43,4.43,4.43
51.47,8.02,3.62,8.01,3.60,-3.60,-3.45,-3.56,4.43,4.41,4.40
51.99,8.02,3.64,8.02,3.64,-3.64,-3.49,-3.63,4.38,4.38,4.38
52.51,8.07,3.71,8.04,3.69,-3.69,-3.53,-3.69,4.39,4.36,4.36
53.03,8.07,3.73,8.06,3.73,-3.73,-3.56,-3.76,4.35,4.33,4.34
53.56,8.07,3.76,8.07,3.76,-3.76,-3.60,-3.83,4.31,4.31,4.31
54.10,8.07,3.78,8.08,3.80,-3.80,-3.64,-3.90,4.28,4.29,4.29
54.64,8.07,3.81,8.09,3.82,-3.82,-3.68,-3.96,4.25,4.26,4.26
55.18,8.07,3.83,8.09,3.85,-3.85,-3.71,-4.03,4.23,4.24,4.24
55.74,8.07,3.86,8.08,3.86,-3.86,-3.75,-4.09,4.21,4.22,4.21
56.29,8.07,3.88,8.07,3.88,-3.88,-3.79,-4.15,4.20,4.20,4.19
56.86,8.07,3.90,8.06,3.89,-3.89,-3.83,-4.21,4.18,4.17,4.17
57.42,8.07,3.93,8.05,3.90,-3.90,-3.87,-4.27,4.17,4.15,4.14
58.00,8.04,3.92,8.03,3.91,-3.91,-3.90,-4.32,4.14,4.12,4.12
58.58,8.02,3.92,8.01,3.91,-3.91,-3.94,-4.38,4.11,4.10,4.10
59.16,8.01,3.93,7.99,3.92,-3.92,-3.98,-4.42,4.10,4.07,4.08
59.76,7.96,3.90,7.97,3.92,-3.92,-4.02,-4.47,4.05,4.05,4.06
60.35,7.93,3.90,7.94,3.92,-3.92,-4.06,-4.51,4.01,4.02,4.03
60.96,7.90,3.90,7.91,3.92,-3.92,-4.10,-4.55,3.99,3.99,4.00
61.57,7.88,3.92,7.89,3.92,-3.92,-4.14,-4.58,3.96,3.97,3.96
62.18,7.86,3.93,7.86,3.93,-3.93,-4.18,-4.61,3.94,3.94,3.93
62.80,7.83,3.93,7.84,3.93,-3.93,-4.22,-4.63,3.90,3.91,3.90
63.43,7.83,3.96,7.83,3.95,-3.95,-4.26,-4.65,3.89,3.88,3.87
64.07,7.79,3.95,7.82,3.97,-3.97,-4.30,-4.67,3.83,3.85,3.84
64.71,7.79,3.97,7.81,3.99,-3.99,-4.34,-4.68,3.80,3.82,3.82
65.35,7.79,4.00,7.81,4.02,-4.02,-4.37,-4.68,3.77,3.79,3.79
66.01,7.79,4.03,7.82,4.06,-4.06,-4.41,-4.69,3.73,3.76,3.76
66.67,7.79,4.06,7.83,4.10,-4.10,-4.45,-4.69,3.69,3.73,3.73
67.33,7.83,4.13,7.85,4.15,-4.15,-4.50,-4.69,3.69,3.70,3.70
68.01,7.88,4.21,7.87,4.20,-4.20,-4.54,-4.68,3.68,3.67,3.67
68.69,7.91,4.27,7.90,4.25,-4.25,-4.58,-4.67,3.66,3.64,3.64
69.37,7.93,4.32,7.92,4.31,-4.31,-4.62,-4.66,3.62,3.61,3.61
70.07,7.97,4.39,7.95,4.37,-4.37,-4.66,-4.65,3.60,3.58,3.58
70.77,7.97,4.42,7.98,4.43,-4.43,-4.70,-4.64,3.54,3.55,3.55
71.48,8.01,4.49,8.01,4.50,-4.50,-4.74,-4.62,3.52,3.51,3.52
72.19,8.04,4.56,8.04,4.56,-4.56,-4.78,-4.61,3.49,3.48,3.48
72.91,8.07,4.62,8.07,4.62,-4.62,-4.82,-4.60,3.46,3.45,3.45
73.64,8.10,4.69,8.09,4.68,-4.68,-4.86,-4.58,3.43,3.42,3.41
74.38,8.11,4.73,8.12,4.73,-4.73,-4.90,-4.57,3.38,3.38,3.38
75.12,8.13,4.79,8.14,4.79,-4.79,-4.94,-4.55,3.35,3.35,3.34
75.87,8.16,4.85,8.16,4.84,-4.84,-4.98,-4.54,3.32,3.32,3.31
76.63,8.16,4.88,8.18,4.90,-4.90,-5.02,-4.53,3.27,3.28,3.28
77.40,8.21,4.96,8.20,4.95,-4.95,-5.06,-4.52,3.26,3.25,3.25
78.17,8.21,5.00,8.22,5.01,-5.01,-5.09,-4.52,3.21,3.21,3.21
78.95,8.25,5.07,8.24,5.06,-5.06,-5.13,-4.51,3.19,3.18,3.18
79.74,8.25,5.10,8.27,5.12,-5.12,-5.17,-4.51,3.14,3.15,3.15
80.54,8.28,5.17,8.29,5.17,-5.17,-5.21,-4.51,3.11,3.11,3.11
81.35,8.30,5.22,8.31,5.23,-5.23,-5.25,-4.51,3.07,3.08,3.08
82.16,8.33,5.29,8.33,5.29,-5.29,-5.29,-4.52,3.05,3.04,3.04
82.98,8.35,5.34,8.35,5.34,-5.34,-5.32,-4.53,3.01,3.01,3.01
83.81,8.35,5.38,8.38,5.40,-5.40,-5.36,-4.54,2.95,2.97,2.97
84.65,8.39,5.46,8.40,5.47,-5.47,-5.40,-4.56,2.93,2.94,2.93
85.50,8.41,5.51,8.42,5.52,-5.52,-5.44,-4.58,2.89,2.90,2.90
86.35,8.44,5.58,8.44,5.58,-5.58,-5.47,-4.60,2.86,2.86,2.86
87.22,8.45,5.63,8.46,5.64,-5.64,-5.51,-4.62,2.81,2.82,2.82
88.09,8.49,5.71,8.48,5.70,-5.70,-5.54,-4.65,2.80,2.78,2.78
88.97,8.49,5.75,8.49,5.75,-5.75,-5.58,-4.69,2.74,2.74,2.74
89.86,8.49,5.79,8.50,5.81,-5.81,-5.61,-4.72,2.69,2.70,2.70
90.76,8.52,5.87,8.51,5.86,-5.86,-5.64,-4.76,2.67,2.65,2.65
91.66,8.53,5.92,8.52,5.90,-5.90,-5.67,-4.81,2.63,2.61,2.61
92.58,8.53,5.97,8.51,5.95,-5.95,-5.71,-4.85,2.59,2.57,2.56
93.51,8.49,5.97,8.51,5.99,-5.99,-5.74,-4.90,2.50,2.52,2.52
94.44,8.49,6.01,8.50,6.03,-6.03,-5.77,-4.96,2.47,2.47,2.48
95.39,8.49,6.06,8.49,6.06,-6.06,-5.80,-5.02,2.43,2.43,2.43
96.34,8.47,6.09,8.47,6.09,-6.09,-5.82,-5.08,2.39,2.38,2.38
97.30,8.44,6.11,8.44,6.11,-6.11,-5.85,-5.14,2.34,2.33,2.33
98.28,8.41,6.13,8.41,6.13,-6.13,-5.88,-5.20,2.29,2.29,2.28
99.26,8.38,6.14,8.38,6.14,-6.14,-5.90,-5.27,2.24,2.24,2.24
100.25,8.34,6.15,8.34,6.15,-6.15,-5.93,-5.34,2.19,2.19,2.19
101.25,8.30,6.16,8.30,6.16,-6.16,-5.95,-5.42,2.14,2.14,2.14
102.27,8.26,6.17,8.26,6.17,-6.17,-5.97,-5.49,2.10,2.10,2.09
103.29,8.23,6.19,8.22,6.17,-6.17,-5.99,-5.57,2.07,2.05,2.04
104.32,8.16,6.16,8.17,6.17,-6.17,-6.01,-5.64,1.99,2.00,2.00
105.37,8.10,6.15,8.12,6.17,-6.17,-6.03,-5.72,1.94,1.95,1.95
106.42,8.04,6.14,8.06,6.16,-6.16,-6.04,-5.80,1.88,1.90,1.90
107.48,8.00,6.15,8.01,6.16,-6.16,-6.06,-5.88,1.85,1.85,1.85
108.56,7.95,6.15,7.95,6.15,-6.15,-6.07,-5.95,1.80,1.80,1.80
109.64,7.90,6.15,7.89,6.15,-6.15,-6.08,-6.03,1.76,1.75,1.75
110.74,7.84,6.14,7.84,6.14,-6.14,-6.09,-6.10,1.70,1.70,1.70
111.85,7.78,6.13,7.78,6.14,-6.14,-6.10,-6.17,1.65,1.64,1.65
112.97,7.71,6.12,7.72,6.13,-6.13,-6.11,-6.24,1.58,1.59,1.59
114.10,7.65,6.11,7.67,6.13,-6.13,-6.12,-6.30,1.53,1.54,1.54
115.24,7.59,6.11,7.61,6.12,-6.12,-6.12,-6.36,1.47,1.49,1.48
116.39,7.53,6.10,7.55,6.12,-6.12,-6.12,-6.42,1.41,1.43,1.43
117.55,7.48,6.11,7.50,6.12,-6.12,-6.12,-6.47,1.37,1.38,1.37
118.73,7.44,6.12,7.44,6.11,-6.11,-6.12,-6.51,1.34,1.33,1.32
119.92,7.39,6.12,7.38,6.10,-6.10,-6.12,-6.55,1.29,1.27,1.27
121.12,7.32,6.10,7.32,6.10,-6.10,-6.12,-6.58,1.23,1.22,1.22
122.33,7.26,6.09,7.26,6.09,-6.09,-6.11,-6.60,1.18,1.17,1.17
123.55,7.20,6.08,7.20,6.08,-6.08,-6.10,-6.61,1.12,1.12,1.12
124.79,7.12,6.05,7.13,6.07,-6.07,-6.10,-6.62,1.06,1.07,1.07
126.03,7.06,6.04,7.07,6.06,-6.06,-6.08,-6.62,1.01,1.02,1.02
127.29,7.01,6.04,7.01,6.04,-6.04,-6.07,-6.61,0.97,0.96,0.97
128.57,6.94,6.03,6.94,6.02,-6.02,-6.06,-6.60,0.92,0.91,0.91
129.85,6.86,6.00,6.87,6.01,-6.01,-6.04,-6.58,0.86,0.86,0.86
131.15,6.80,5.99,6.80,5.98,-5.98,-6.03,-6.55,0.82,0.82,0.81
132.46,6.73,5.97,6.73,5.96,-5.96,-6.01,-6.51,0.77,0.77,0.76
133.79,6.65,5.93,6.65,5.94,-5.94,-5.99,-6.47,0.72,0.72,0.72
135.12,6.57,5.90,6.58,5.91,-5.91,-5.97,-6.42,0.66,0.67,0.67
136.48,6.49,5.86,6.51,5.88,-5.88,-5.94,-6.37,0.61,0.63,0.63
137.84,6.42,5.84,6.43,5.85,-5.85,-5.92,-6.31,0.58,0.58,0.58
139.22,6.36,5.83,6.36,5.82,-5.82,-5.89,-6.25,0.55,0.54,0.53
140.61,6.28,5.79,6.28,5.78,-5.78,-5.87,-6.19,0.50,0.50,0.49
142.02,6.21,5.75,6.20,5.74,-5.74,-5.84,-6.12,0.47,0.46,0.46
143.44,6.13,5.71,6.12,5.70,-5.70,-5.81,-6.05,0.43,0.42,0.42
144.87,6.04,5.66,6.05,5.67,-5.67,-5.78,-5.98,0.38,0.38,0.38
146.32,5.97,5.63,5.97,5.63,-5.63,-5.74,-5.91,0.35,0.34,0.34
147.78,5.87,5.56,5.89,5.59,-5.59,-5.71,-5.84,0.29,0.30,0.31
149.26,5.81,5.54,5.81,5.55,-5.55,-5.68,-5.76,0.26,0.26,0.27
150.75,5.72,5.49,5.74,5.51,-5.51,-5.64,-5.69,0.21,0.23,0.23
152.26,5.66,5.47,5.66,5.47,-5.47,-5.61,-5.62,0.19,0.19,0.19
153.78,5.57,5.42,5.58,5.43,-5.43,-5.57,-5.56,0.14,0.15,0.15
155.32,5.50,5.39,5.50,5.39,-5.39,-5.53,-5.49,0.11,0.11,0.11
156.88,5.42,5.35,5.43,5.35,-5.35,-5.49,-5.42,0.07,0.07,0.07
158.44,5.35,5.32,5.35,5.31,-5.31,-5.45,-5.36,0.04,0.03,0.03
160.03,5.27,5.28,5.27,5.27,-5.27,-5.41,-5.30,-0.00,-0.01,-0.01
161.63,5.19,5.24,5.19,5.24,-5.24,-5.37,-5.24,-0.04,-0.04,-0.05
163.24,5.12,5.21,5.11,5.20,-5.20,-5.33,-5.19,-0.07,-0.08,-0.09
164.88,5.04,5.16,5.03,5.16,-5.16,-5.29,-5.14,-0.11,-0.12,-0.12
166.53,4.96,5.12,4.96,5.12,-5.12,-5.25,-5.09,-0.15,-0.16,-0.16
168.19,4.87,5.07,4.88,5.08,-5.08,-5.21,-5.05,-0.21,-0.20,-0.20
169.87,4.80,5.04,4.80,5.04,-5.04,-5.17,-5.01,-0.24,-0.24,-0.24
171.57,4.70,4.98,4.73,5.00,-5.00,-5.13,-4.97,-0.30,-0.28,-0.28
173.29,4.64,4.95,4.65,4.97,-4.97,-5.09,-4.94,-0.32,-0.32,-0.31
175.02,4.57,4.92,4.58,4.93,-4.93,-5.04,-4.91,-0.36,-0.35,-0.35
176.77,4.50,4.89,4.51,4.90,-4.90,-5.00,-4.89,-0.39,-0.39,-0.39
178.54,4.44,4.87,4.44,4.87,-4.87,-4.96,-4.86,-0.42,-0.43,-0.43
180.32,4.37,4.84,4.37,4.84,-4.84,-4.92,-4.85,-0.46,-0.46,-0.47
182.13,4.31,4.81,4.31,4.81,-4.81,-4.88,-4.83,-0.50,-0.50,-0.50
183.95,4.25,4.79,4.25,4.79,-4.79,-4.83,-4.82,-0.53,-0.54,-0.54
185.79,4.18,4.75,4.19,4.77,-4.77,-4.79,-4.82,-0.58,-0.57,-0.57
187.65,4.12,4.73,4.14,4.75,-4.75,-4.75,-4.81,-0.62,-0.61,-0.61
189.52,4.08,4.72,4.09,4.73,-4.73,-4.71,-4.81,-0.64,-0.64,-0.64
191.42,4.03,4.70,4.04,4.71,-4.71,-4.67,-4.82,-0.67,-0.67,-0.67
193.33,3.98,4.68,3.99,4.69,-4.69,-4.63,-4.82,-0.71,-0.70,-0.70
195.27,3.95,4.68,3.94,4.67,-4.67,-4.60,-4.83,-0.72,-0.73,-0.73
197.22,3.89,4.65,3.90,4.66,-4.66,-4.56,-4.84,-0.76,-0.76,-0.76
199.19,3.86,4.65,3.86,4.64,-4.64,-4.52,-4.86,-0.78,-0.78,-0.79
201.18,3.82,4.63,3.82,4.63,-4.63,-4.49,-4.88,-0.80,-0.81,-0.81
203.19,3.78,4.61,3.79,4.61,-4.61,-4.45,-4.89,-0.83,-0.83,-0.83
205.23,3.75,4.60,3.75,4.60,-4.60,-4.41,-4.92,-0.84,-0.85,-0.85
207.28,3.69,4.55,3.71,4.58,-4.58,-4.38,-4.94,-0.88,-0.86,-0.86
209.35,3.66,4.54,3.68,4.56,-4.56,-4.35,-4.96,-0.89,-0.88,-0.88
211.44,3.63,4.53,3.63,4.53,-4.53,-4.32,-4.98,-0.89,-0.89,-0.90
213.56,3.60,4.51,3.59,4.50,-4.50,-4.29,-5.01,-0.89,-0.91,-0.91
215.69,3.57,4.48,3.55,4.46,-4.46,-4.26,-5.03,-0.89,-0.92,-0.91
217.85,3.52,4.44,3.50,4.42,-4.42,-4.23,-5.06,-0.90,-0.92,-0.92
220.03,3.47,4.40,3.45,4.38,-4.38,-4.20,-5.08,-0.91,-0.93,-0.93
222.23,3.42,4.36,3.40,4.34,-4.34,-4.17,-5.10,-0.91,-0.93,-0.94
224.45,3.37,4.31,3.35,4.29,-4.29,-4.15,-5.12,-0.92,-0.94,-0.94
226.70,3.31,4.25,3.31,4.24,-4.24,-4.12,-5.13,-0.93,-0.94,-0.94
228.96,3.24,4.18,3.26,4.20,-4.20,-4.10,-5.15,-0.95,-0.94,-0.94
231.25,3.19,4.12,3.22,4.15,-4.15,-4.08,-5.16,-0.96,-0.93,-0.93
233.57,3.14,4.07,3.17,4.11,-4.11,-4.06,-5.16,-0.96,-0.93,-0.93
235.90,3.12,4.05,3.14,4.06,-4.06,-4.04,-5.16,-0.94,-0.93,-0.93
238.26,3.07,3.99,3.11,4.03,-4.03,-4.02,-5.16,-0.95,-0.92,-0.92
240.64,3.07,3.98,3.08,3.99,-3.99,-4.01,-5.15,-0.92,-0.91,-0.91
243.05,3.07,3.97,3.06,3.96,-3.96,-3.99,-5.14,-0.89,-0.90,-0.90
245.48,3.05,3.94,3.05,3.94,-3.94,-3.98,-5.12,-0.89,-0.89,-0.89
247.93,3.03,3.91,3.04,3.92,-3.92,-3.97,-5.09,-0.89,-0.88,-0.88
250.41,3.03,3.90,3.04,3.91,-3.91,-3.96,-5.06,-0.87,-0.86,-0.87
252.92,3.03,3.88,3.05,3.90,-3.90,-3.95,-5.02,-0.86,-0.85,-0.85
255.45,3.07,3.90,3.06,3.89,-3.89,-3.94,-4.98,-0.82,-0.83,-0.83
258.00,3.07,3.89,3.08,3.89,-3.89,-3.94,-4.92,-0.82,-0.82,-0.82
260.58,3.10,3.90,3.09,3.89,-3.89,-3.94,-4.87,-0.78,-0.80,-0.80
263.19,3.12,3.90,3.11,3.89,-3.89,-3.93,-4.80,-0.77,-0.78,-0.78
265.82,3.12,3.88,3.13,3.89,-3.89,-3.93,-4.74,-0.77,-0.76,-0.76
268.48,3.17,3.91,3.16,3.90,-3.90,-3.93,-4.66,-0.73,-0.74,-0.74
271.16,3.18,3.90,3.19,3.91,-3.91,-3.94,-4.58,-0.73,-0.72,-0.72
273.87,3.21,3.91,3.22,3.92,-3.92,-3.94,-4.50,-0.71,-0.70,-0.70
276.61,3.26,3.94,3.26,3.94,-3.94,-3.94,-4.42,-0.68,-0.68,-0.68
279.38,3.27,3.93,3.29,3.95,-3.95,-3.95,-4.33,-0.68,-0.66,-0.66
282.17,3.31,3.95,3.33,3.97,-3.97,-3.96,-4.23,-0.66,-0.64,-0.64
284.99,3.36,3.98,3.36,3.99,-3.99,-3.97,-4.14,-0.62,-0.62,-0.62
287.84,3.39,3.99,3.40,4.00,-4.00,-3.98,-4.04,-0.61,-0.60,-0.60
290.72,3.45,4.03,3.44,4.02,-4.02,-3.99,-3.94,-0.57,-0.58,-0.58
293.63,3.48,4.04,3.48,4.04,-4.04,-4.00,-3.84,-0.55,-0.56,-0.56
296.57,3.53,4.07,3.52,4.05,-4.05,-4.01,-3.73,-0.52,-0.54,-0.54
299.53,3.56,4.08,3.55,4.07,-4.07,-4.02,-3.63,-0.50,-0.51,-0.52
302.53,3.59,4.09,3.59,4.08,-4.08,-4.04,-3.52,-0.48,-0.49,-0.50
305.55,3.60,4.07,3.62,4.09,-4.09,-4.05,-3.42,-0.48,-0.47,-0.47
308.61,3.63,4.08,3.65,4.09,-4.09,-4.06,-3.32,-0.46,-0.44,-0.45
311.69,3.68,4.10,3.67,4.10,-4.10,-4.08,-3.21,-0.41,-0.42,-0.42
314.81,3.72,4.11,3.70,4.09,-4.09,-4.09,-3.11,-0.37,-0.40,-0.39
317.96,3.73,4.10,3.72,4.09,-4.09,-4.10,-3.00,-0.36,-0.38,-0.37
321.14,3.73,4.08,3.74,4.09,-4.09,-4.11,-2.90,-0.35,-0.35,-0.35
324.35,3.73,4.06,3.75,4.08,-4.08,-4.12,-2.80,-0.35,-0.33,-0.33
327.59,3.77,4.08,3.77,4.08,-4.08,-4.12,-2.70,-0.30,-0.31,-0.31
330.87,3.77,4.06,3.78,4.07,-4.07,-4.13,-2.60,-0.30,-0.29,-0.29
334.18,3.77,4.04,3.80,4.07,-4.07,-4.13,-2.51,-0.29,-0.27,-0.27
337.52,3.77,4.02,3.81,4.06,-4.06,-4.12,-2.41,-0.28,-0.25,-0.25
340.90,3.82,4.05,3.82,4.05,-4.05,-4.12,-2.31,-0.22,-0.23,-0.23
344.30,3.82,4.03,3.83,4.04,-4.04,-4.11,-2.22,-0.21,-0.21,-0.21
347.75,3.82,4.01,3.83,4.02,-4.02,-4.09,-2.13,-0.20,-0.19,-0.19
351.23,3.84,4.01,3.83,4.01,-4.01,-4.07,-2.04,-0.16,-0.17,-0.17
354.74,3.84,3.99,3.84,3.99,-3.99,-4.05,-1.95,-0.14,-0.15,-0.15
358.28,3.82,3.96,3.83,3.97,-3.97,-4.02,-1.86,-0.14,-0.14,-0.14
361.87,3.82,3.94,3.82,3.94,-3.94,-3.98,-1.78,-0.11,-0.12,-0.12
365.49,3.81,3.91,3.80,3.90,-3.90,-3.94,-1.69,-0.09,-0.10,-0.10
369.14,3.77,3.86,3.77,3.86,-3.86,-3.89,-1.61,-0.09,-0.09,-0.09
372.83,3.73,3.80,3.74,3.81,-3.81,-3.83,-1.53,-0.08,-0.07,-0.07
376.56,3.70,3.76,3.70,3.75,-3.75,-3.77,-1.45,-0.05,-0.06,-0.06
380.33,3.66,3.70,3.64,3.68,-3.68,-3.70,-1.37,-0.02,-0.04,-0.04
384.13,3.60,3.63,3.58,3.61,-3.61,-3.62,-1.29,-0.01,-0.03,-0.03
387.97,3.51,3.53,3.51,3.53,-3.53,-3.53,-1.22,-0.02,-0.02,-0.02
391.85,3.45,3.46,3.44,3.44,-3.44,-3.44,-1.14,0.01,-0.00,-0.01
395.77,3.34,3.33,3.35,3.35,-3.35,-3.34,-1.07,-0.00,0.01,0.01
399.73,3.25,3.23,3.26,3.24,-3.24,-3.23,-1.00,0.01,0.02,0.02
403.72,3.15,3.12,3.16,3.13,-3.13,-3.12,-0.93,0.02,0.03,0.03
407.76,3.04,3.00,3.05,3.01,-3.01,-3.00,-0.86,0.03,0.04,0.04
411.84,2.93,2.88,2.94,2.89,-2.89,-2.87,-0.79,0.04,0.05,0.05
415.96,2.82,2.76,2.82,2.76,-2.76,-2.73,-0.72,0.06,0.06,0.06
420.12,2.71,2.64,2.70,2.63,-2.63,-2.59,-0.66,0.09,0.07,0.07
424.32,2.58,2.50,2.57,2.49,-2.49,-2.45,-0.59,0.09,0.08,0.08
428.56,2.44,2.35,2.44,2.35,-2.35,-2.30,-0.53,0.10,0.09,0.09
432.85,2.30,2.20,2.31,2.20,-2.20,-2.15,-0.47,0.10,0.10,0.10
437.18,2.16,2.05,2.17,2.05,-2.05,-1.99,-0.41,0.11,0.12,0.11
441.55,2.00,1.87,2.03,1.90,-1.90,-1.82,-0.35,0.10,0.13,0.13
445.96,1.87,1.73,1.88,1.74,-1.74,-1.66,-0.29,0.13,0.14,0.14
450.42,1.72,1.57,1.73,1.58,-1.58,-1.49,-0.23,0.15,0.15,0.15
454.93,1.58,1.41,1.58,1.41,-1.41,-1.32,-0.18,0.17,0.17,0.17
459.48,1.43,1.25,1.42,1.24,-1.24,-1.15,-0.12,0.19,0.18,0.18
464.07,1.28,1.09,1.27,1.07,-1.07,-0.98,-0.07,0.21,0.19,0.19
468.71,1.11,0.90,1.11,0.90,-0.90,-0.80,-0.02,0.22,0.21,0.21
473.40,0.95,0.73,0.94,0.72,-0.72,-0.63,0.03,0.23,0.22,0.22
478.13,0.77,0.53,0.78,0.54,-0.54,-0.45,0.07,0.23,0.24,0.24
482.91,0.60,0.35,0.62,0.36,-0.36,-0.28,0.12,0.24,0.25,0.25
487.74,0.44,0.17,0.45,0.18,-0.18,-0.11,0.16,0.26,0.27,0.27
492.62,0.28,-0.01,0.28,-0.00,0.00,0.07,0.20,0.29,0.29,0.29
497.55,0.11,-0.19,0.11,-0.19,0.19,0.24,0.24,0.30,0.30,0.30
502.52,-0.04,-0.36,-0.06,-0.37,0.37,0.41,0.28,0.34,0.32,0.32
507.55,-0.22,-0.55,-0.22,-0.56,0.56,0.57,0.32,0.34,0.34,0.33
512.62,-0.38,-0.73,-0.39,-0.74,0.74,0.74,0.36,0.37,0.35,0.35
517.75,-0.55,-0.92,-0.55,-0.92,0.92,0.90,0.39,0.38,0.37,0.37
522.93,-0.71,-1.10,-0.71,-1.10,1.10,1.06,0.43,0.39,0.39,0.39
