frequency,raw,error,smoothed,error_smoothed,equalization,parametric_eq,fixed_band_eq,equalized_raw,equalized_smoothed,target
20.00,-5.93,-8.42,-5.93,-8.42,8.41,8.30,2.81,2.48,2.48,2.49
20.20,-5.84,-8.38,-5.83,-8.38,8.37,8.26,2.89,2.54,2.54,2.54
20.40,-5.75,-8.34,-5.74,-8.33,8.34,8.22,2.98,2.59,2.59,2.59
20.61,-5.66,-8.28,-5.65,-8.29,8.30,8.17,3.06,2.64,2.64,2.62
20.81,-5.57,-8.24,-5.57,-8.24,8.25,8.13,3.15,2.69,2.69,2.67
21.02,-5.48,-8.19,-5.48,-8.19,8.20,8.08,3.24,2.73,2.72,2.71
21.23,-5.41,-8.14,-5.40,-8.14,8.15,8.03,3.33,2.74,2.74,2.73
21.44,-5.34,-8.09,-5.33,-8.09,8.09,7.99,3.43,2.75,2.76,2.75
21.66,-5.26,-8.03,-5.26,-8.03,8.03,7.94,3.53,2.77,2.77,2.77
21.87,-5.18,-7.97,-5.18,-7.97,7.96,7.89,3.63,2.78,2.78,2.78
22.09,-5.11,-7.91,-5.10,-7.90,7.89,7.84,3.73,2.79,2.79,2.80
22.31,-5.01,-7.83,-5.02,-7.83,7.81,7.78,3.84,2.80,2.79,2.81
22.54,-4.93,-7.74,-4.93,-7.74,7.73,7.73,3.95,2.80,2.80,2.81
22.76,-4.84,-7.65,-4.83,-7.64,7.64,7.68,4.06,2.80,2.80,2.81
22.99,-4.74,-7.54,-4.74,-7.55,7.55,7.62,4.17,2.81,2.81,2.80
23.22,-4.66,-7.46,-4.66,-7.46,7.47,7.57,4.29,2.81,2.81,2.80
23.45,-4.58,-7.38,-4.57,-7.38,7.40,7.51,4.41,2.82,2.83,2.80
23.69,-4.51,-7.32,-4.50,-7.31,7.35,7.45,4.54,2.84,2.85,2.81
23.92,-4.43,-7.24,-4.44,-7.26,7.31,7.39,4.66,2.88,2.87,2.81
24.16,-4.41,-7.22,-4.41,-7.23,7.28,7.34,4.79,2.87,2.86,2.81
24.40,-4.42,-7.24,-4.42,-7.23,7.24,7.28,4.92,2.82,2.82,2.82
24.65,-4.43,-7.24,-4.43,-7.25,7.19,7.22,5.05,2.76,2.75,2.81
24.89,-4.43,-7.25,-4.41,-7.23,7.12,7.16,5.18,2.69,2.71,2.81
25.14,-4.35,-7.17,-4.34,-7.16,7.06,7.10,5.32,2.71,2.72,2.81
25.39,-4.20,-7.03,-4.21,-7.03,7.00,7.04,5.45,2.79,2.79,2.82
25.65,-4.06,-6.88,-4.05,-6.87,6.94,6.97,5.59,2.88,2.89,2.82
25.91,-3.91,-6.72,-3.94,-6.76,6.88,6.91,5.73,2.97,2.94,2.81
26.16,-3.88,-6.69,-3.89,-6.71,6.82,6.85,5.87,2.94,2.93,2.81
26.43,-3.92,-6.73,-3.91,-6.72,6.76,6.79,6.00,2.85,2.85,2.81
26.69,-3.95,-6.76,-3.95,-6.76,6.70,6.72,6.14,2.76,2.76,2.81
26.96,-3.98,-6.79,-3.94,-6.76,6.65,6.66,6.27,2.68,2.71,2.81
27.23,-3.88,-6.69,-3.88,-6.69,6.60,6.60,6.40,2.72,2.72,2.81
27.50,-3.76,-6.57,-3.76,-6.57,6.54,6.53,6.53,2.78,2.78,2.81
27.77,-3.62,-6.43,-3.63,-6.44,6.47,6.47,6.65,2.85,2.84,2.80
28.05,-3.52,-6.32,-3.53,-6.33,6.38,6.40,6.77,2.87,2.86,2.80
28.33,-3.45,-6.24,-3.44,-6.24,6.28,6.34,6.88,2.84,2.84,2.79
28.62,-3.38,-6.17,-3.37,-6.17,6.18,6.27,6.98,2.80,2.81,2.79
28.90,-3.31,-6.11,-3.30,-6.10,6.09,6.21,7.08,2.78,2.78,2.80
29.19,-3.23,-6.02,-3.23,-6.02,6.01,6.14,7.17,2.78,2.78,2.79
29.48,-3.15,-5.95,-3.14,-5.94,5.93,6.08,7.25,2.78,2.79,2.80
29.78,-3.06,-5.85,-3.06,-5.86,5.86,6.01,7.32,2.80,2.80,2.79
30.08,-2.98,-5.78,-2.98,-5.78,5.79,5.95,7.37,2.82,2.81,2.80
30.38,-2.92,-5.71,-2.91,-5.71,5.73,5.88,7.42,2.81,2.81,2.79
30.68,-2.86,-5.65,-2.85,-5.65,5.66,5.81,7.45,2.80,2.81,2.79
30.99,-2.79,-5.58,-2.79,-5.58,5.59,5.75,7.47,2.80,2.80,2.79
31.30,-2.74,-5.52,-2.74,-5.53,5.52,5.68,7.47,2.78,2.77,2.78
31.61,-2.69,-5.47,-2.69,-5.47,5.44,5.62,7.47,2.76,2.75,2.78
31.93,-2.64,-5.42,-2.62,-5.40,5.37,5.55,7.45,2.73,2.75,2.78
32.24,-2.53,-5.31,-2.53,-5.31,5.30,5.48,7.42,2.76,2.77,2.77
32.57,-2.43,-5.20,-2.43,-5.20,5.23,5.42,7.37,2.80,2.80,2.77
32.89,-2.32,-5.09,-2.33,-5.10,5.15,5.35,7.32,2.83,2.82,2.77
33.22,-2.27,-5.03,-2.28,-5.05,5.07,5.29,7.25,2.80,2.79,2.76
33.55,-2.25,-5.01,-2.25,-5.01,4.98,5.22,7.17,2.74,2.74,2.76
33.89,-2.23,-4.98,-2.20,-4.96,4.91,5.15,7.09,2.68,2.70,2.75
34.23,-2.14,-4.89,-2.12,-4.87,4.84,5.09,6.99,2.71,2.72,2.75
34.57,-2.02,-4.76,-2.02,-4.77,4.79,5.02,6.89,2.77,2.77,2.74
34.92,-1.91,-4.65,-1.93,-4.67,4.74,4.96,6.78,2.84,2.81,2.74
35.27,-1.89,-4.62,-1.90,-4.63,4.69,4.89,6.67,2.81,2.80,2.73
35.62,-1.90,-4.63,-1.89,-4.63,4.63,4.83,6.55,2.74,2.74,2.73
35.97,-1.92,-4.65,-1.89,-4.62,4.56,4.76,6.43,2.65,2.67,2.73
36.33,-1.85,-4.58,-1.85,-4.58,4.49,4.69,6.30,2.65,2.64,2.73
36.70,-1.78,-4.50,-1.78,-4.51,4.44,4.63,6.18,2.66,2.66,2.72
37.06,-1.69,-4.42,-1.67,-4.40,4.40,4.56,6.05,2.71,2.73,2.72
37.43,-1.56,-4.30,-1.55,-4.28,4.37,4.50,5.92,2.81,2.82,2.73
37.81,-1.44,-4.17,-1.47,-4.20,4.33,4.43,5.78,2.90,2.86,2.73
38.19,-1.43,-4.15,-1.48,-4.21,4.29,4.37,5.65,2.86,2.81,2.72
38.57,-1.55,-4.28,-1.54,-4.27,4.24,4.30,5.52,2.70,2.70,2.73
38.95,-1.65,-4.40,-1.58,-4.31,4.20,4.24,5.40,2.54,2.62,2.74
39.34,-1.53,-4.27,-1.53,-4.27,4.15,4.17,5.27,2.62,2.62,2.73
39.74,-1.39,-4.12,-1.42,-4.15,4.10,4.11,5.14,2.72,2.69,2.73
40.14,-1.27,-4.00,-1.28,-4.01,4.05,4.04,5.02,2.78,2.77,2.73
40.54,-1.20,-3.93,-1.19,-3.92,3.98,3.98,4.90,2.79,2.79,2.73
40.94,-1.13,-3.85,-1.13,-3.85,3.91,3.92,4.78,2.78,2.78,2.72
41.35,-1.08,-3.80,-1.08,-3.80,3.84,3.85,4.66,2.76,2.76,2.72
41.76,-1.04,-3.75,-1.03,-3.75,3.76,3.79,4.55,2.73,2.73,2.71
42.18,-1.00,-3.71,-1.00,-3.71,3.69,3.72,4.44,2.70,2.69,2.71
42.60,-0.96,-3.66,-0.96,-3.66,3.62,3.66,4.33,2.66,2.66,2.70
43.03,-0.92,-3.61,-0.92,-3.61,3.55,3.60,4.22,2.63,2.63,2.69
43.46,-0.86,-3.54,-0.86,-3.54,3.49,3.53,4.12,2.63,2.63,2.68
43.90,-0.80,-3.46,-0.76,-3.42,3.43,3.47,4.02,2.63,2.67,2.66
44.33,-0.65,-3.30,-0.62,-3.27,3.37,3.40,3.92,2.71,2.74,2.64
44.78,-0.49,-3.11,-0.55,-3.18,3.29,3.34,3.83,2.80,2.74,2.62
45.23,-0.50,-3.11,-0.59,-3.20,3.21,3.28,3.74,2.72,2.62,2.61
45.68,-0.71,-3.31,-0.65,-3.25,3.14,3.21,3.65,2.44,2.49,2.60
46.13,-0.76,-3.35,-0.61,-3.20,3.08,3.15,3.57,2.32,2.48,2.58
46.60,-0.45,-3.03,-0.48,-3.05,3.03,3.09,3.49,2.59,2.56,2.58
47.06,-0.18,-2.74,-0.34,-2.91,2.99,3.02,3.41,2.82,2.65,2.56
47.53,-0.30,-2.85,-0.28,-2.84,2.95,2.96,3.33,2.65,2.67,2.55
48.01,-0.41,-2.96,-0.32,-2.87,2.90,2.90,3.26,2.49,2.57,2.55
48.49,-0.36,-2.89,-0.36,-2.90,2.83,2.83,3.18,2.48,2.47,2.53
48.97,-0.31,-2.82,-0.32,-2.84,2.77,2.77,3.12,2.47,2.45,2.51
49.46,-0.26,-2.75,-0.26,-2.75,2.72,2.71,3.05,2.47,2.47,2.49
49.96,-0.21,-2.68,-0.21,-2.68,2.68,2.64,2.98,2.47,2.47,2.47
50.46,-0.16,-2.62,-0.16,-2.62,2.64,2.58,2.92,2.48,2.48,2.46
50.96,-0.11,-2.56,-0.10,-2.55,2.58,2.51,2.86,2.48,2.48,2.45
51.47,-0.06,-2.49,-0.05,-2.49,2.52,2.45,2.80,2.46,2.47,2.43
51.99,-0.01,-2.43,-0.03,-2.45,2.46,2.39,2.74,2.45,2.44,2.42
52.51,-0.01,-2.42,-0.01,-2.42,2.41,2.32,2.69,2.41,2.41,2.41
53.03,-0.01,-2.42,0.02,-2.39,2.37,2.26,2.63,2.36,2.39,2.41
53.56,0.05,-2.34,0.05,-2.35,2.33,2.19,2.58,2.38,2.38,2.39
54.10,0.10,-2.28,0.10,-2.28,2.28,2.13,2.53,2.39,2.39,2.38
54.64,0.15,-2.21,0.15,-2.22,2.24,2.07,2.48,2.39,2.39,2.36
55.18,0.19,-2.17,0.18,-2.18,2.19,2.00,2.43,2.39,2.37,2.36
55.74,0.19,-2.15,0.20,-2.14,2.14,1.94,2.38,2.33,2.34,2.34
56.29,0.22,-2.11,0.23,-2.10,2.08,1.87,2.33,2.31,2.32,2.33
56.86,0.28,-2.04,0.28,-2.04,2.02,1.81,2.28,2.31,2.30,2.32
57.42,0.33,-1.96,0.33,-1.97,1.96,1.74,2.23,2.30,2.30,2.29
58.00,0.39,-1.89,0.39,-1.90,1.90,1.68,2.18,2.29,2.29,2.28
58.58,0.44,-1.83,0.45,-1.82,1.83,1.62,2.13,2.28,2.28,2.27
59.16,0.49,-1.76,0.51,-1.75,1.76,1.55,2.08,2.26,2.27,2.25
59.76,0.56,-1.67,0.55,-1.68,1.68,1.49,2.03,2.25,2.23,2.23
60.35,0.59,-1.60,0.58,-1.61,1.60,1.43,1.98,2.19,2.18,2.19
60.96,0.59,-1.56,0.62,-1.54,1.52,1.36,1.93,2.11,2.13,2.15
61.57,0.65,-1.46,0.66,-1.46,1.44,1.30,1.88,2.09,2.10,2.11
62.18,0.71,-1.36,0.71,-1.36,1.36,1.24,1.83,2.08,2.07,2.07
62.80,0.77,-1.25,0.76,-1.26,1.28,1.18,1.77,2.06,2.05,2.02
63.43,0.79,-1.19,0.79,-1.19,1.21,1.12,1.72,2.00,2.00,1.98
64.07,0.79,-1.14,0.80,-1.14,1.14,1.07,1.66,1.94,1.94,1.93
64.71,0.79,-1.10,0.80,-1.10,1.09,1.01,1.61,1.89,1.89,1.89
65.35,0.79,-1.06,0.80,-1.05,1.06,0.96,1.55,1.86,1.86,1.85
66.01,0.79,-1.01,0.80,-1.00,1.04,0.91,1.49,1.84,1.84,1.80
66.67,0.79,-0.96,0.79,-0.97,1.02,0.86,1.43,1.82,1.81,1.75
67.33,0.75,-0.95,0.74,-0.97,0.99,0.82,1.37,1.74,1.72,1.70
68.01,0.68,-0.98,0.67,-0.99,0.94,0.78,1.31,1.62,1.61,1.66
68.69,0.59,-1.02,0.62,-0.99,0.88,0.74,1.25,1.47,1.50,1.61
69.37,0.61,-0.95,0.64,-0.92,0.82,0.71,1.19,1.43,1.46,1.56
70.07,0.72,-0.79,0.74,-0.78,0.75,0.68,1.12,1.48,1.49,1.51
70.77,0.88,-0.58,0.86,-0.61,0.68,0.66,1.06,1.57,1.54,1.46
71.48,0.93,-0.48,0.89,-0.51,0.61,0.65,0.99,1.54,1.50,1.41
72.19,0.87,-0.47,0.84,-0.50,0.54,0.64,0.93,1.42,1.39,1.34
72.91,0.69,-0.59,0.76,-0.53,0.50,0.64,0.86,1.19,1.26,1.28
73.64,0.67,-0.56,0.71,-0.52,0.49,0.65,0.79,1.16,1.20,1.23
74.38,0.69,-0.48,0.67,-0.50,0.51,0.67,0.72,1.20,1.18,1.17
75.12,0.67,-0.44,0.61,-0.51,0.57,0.70,0.66,1.24,1.17,1.11
75.87,0.44,-0.61,0.46,-0.60,0.64,0.74,0.59,1.08,1.10,1.05
76.63,0.23,-0.77,0.27,-0.73,0.73,0.79,0.52,0.96,1.00,1.00
77.40,0.07,-0.88,0.09,-0.86,0.82,0.86,0.45,0.90,0.91,0.95
78.17,-0.05,-0.94,-0.08,-0.98,0.94,0.93,0.38,0.90,0.87,0.89
78.95,-0.24,-1.09,-0.25,-1.10,1.09,1.02,0.31,0.86,0.85,0.85
79.74,-0.45,-1.25,-0.42,-1.22,1.26,1.12,0.24,0.81,0.84,0.80
80.54,-0.61,-1.36,-0.59,-1.34,1.42,1.24,0.17,0.81,0.83,0.75
81.35,-0.77,-1.47,-0.80,-1.50,1.56,1.36,0.10,0.80,0.76,0.70
82.16,-0.98,-1.63,-1.04,-1.70,1.68,1.49,0.03,0.70,0.63,0.65
82.98,-1.35,-1.96,-1.28,-1.89,1.78,1.63,-0.04,0.43,0.50,0.61
83.81,-1.49,-2.05,-1.44,-2.01,1.87,1.77,-0.12,0.38,0.43,0.56
84.65,-1.50,-2.01,-1.49,-2.01,1.95,1.89,-0.19,0.45,0.46,0.51
85.50,-1.44,-1.91,-1.46,-1.93,2.01,2.01,-0.26,0.57,0.55,0.47
86.35,-1.44,-1.86,-1.49,-1.91,2.05,2.09,-0.33,0.61,0.56,0.42
87.22,-1.58,-1.95,-1.56,-1.94,2.05,2.14,-0.41,0.47,0.49,0.37
88.09,-1.72,-2.04,-1.70,-2.02,2.02,2.15,-0.48,0.31,0.32,0.32
88.97,-1.76,-2.02,-1.79,-2.06,1.97,2.11,-0.56,0.22,0.18,0.26
89.86,-1.88,-2.09,-1.78,-2.00,1.90,2.02,-0.63,0.03,0.12,0.21
90.76,-1.67,-1.83,-1.71,-1.88,1.81,1.89,-0.71,0.14,0.10,0.16
91.66,-1.57,-1.68,-1.60,-1.70,1.69,1.73,-0.78,0.12,0.09,0.11
92.58,-1.47,-1.52,-1.43,-1.49,1.53,1.53,-0.86,0.06,0.10,0.05
93.51,-1.29,-1.29,-1.30,-1.31,1.33,1.31,-0.94,0.04,0.03,0.00
94.44,-1.12,-1.08,-1.14,-1.10,1.10,1.08,-1.01,-0.02,-0.04,-0.04
95.39,-0.98,-0.89,-0.94,-0.86,0.86,0.85,-1.09,-0.12,-0.08,-0.09
96.34,-0.77,-0.63,-0.74,-0.61,0.62,0.61,-1.17,-0.15,-0.13,-0.14
97.30,-0.51,-0.32,-0.56,-0.37,0.37,0.38,-1.25,-0.13,-0.19,-0.19
98.28,-0.37,-0.13,-0.37,-0.14,0.14,0.16,-1.32,-0.23,-0.23,-0.24
99.26,-0.25,0.03,-0.19,0.09,-0.08,-0.06,-1.40,-0.33,-0.27,-0.28
100.25,-0.01,0.32,-0.01,0.31,-0.30,-0.26,-1.48,-0.31,-0.32,-0.33
101.25,0.21,0.59,0.16,0.54,-0.51,-0.46,-1.56,-0.30,-0.35,-0.38
102.27,0.29,0.72,0.32,0.75,-0.71,-0.65,-1.64,-0.42,-0.39,-0.43
103.29,0.42,0.90,0.42,0.90,-0.90,-0.84,-1.72,-0.47,-0.47,-0.48
104.32,0.53,1.05,0.52,1.03,-1.07,-1.01,-1.79,-0.54,-0.56,-0.52
105.37,0.61,1.18,0.65,1.22,-1.24,-1.18,-1.87,-0.62,-0.58,-0.57
106.42,0.77,1.39,0.79,1.41,-1.40,-1.34,-1.95,-0.63,-0.61,-0.62
107.48,0.95,1.63,0.89,1.57,-1.56,-1.49,-2.02,-0.61,-0.67,-0.68
108.56,0.98,1.71,0.96,1.68,-1.71,-1.63,-2.10,-0.73,-0.76,-0.73
109.64,0.96,1.74,1.03,1.81,-1.83,-1.76,-2.17,-0.87,-0.81,-0.78
110.74,1.06,1.90,1.13,1.96,-1.94,-1.88,-2.24,-0.88,-0.81,-0.84
111.85,1.30,2.18,1.23,2.11,-2.04,-1.99,-2.31,-0.73,-0.81,-0.88
112.97,1.33,2.27,1.27,2.20,-2.12,-2.10,-2.38,-0.79,-0.85,-0.94
114.10,1.18,2.17,1.24,2.23,-2.20,-2.19,-2.44,-1.01,-0.96,-0.99
115.24,1.12,2.16,1.13,2.16,-2.27,-2.28,-2.51,-1.14,-1.14,-1.04
116.39,1.12,2.21,1.10,2.18,-2.31,-2.36,-2.57,-1.18,-1.21,-1.09
117.55,1.07,2.20,1.21,2.34,-2.32,-2.43,-2.62,-1.25,-1.11,-1.13
118.73,1.33,2.50,1.27,2.44,-2.32,-2.49,-2.68,-0.99,-1.05,-1.17
119.92,1.44,2.64,1.27,2.47,-2.34,-2.55,-2.73,-0.89,-1.07,-1.20
121.12,1.10,2.33,1.22,2.45,-2.39,-2.60,-2.78,-1.29,-1.17,-1.24
122.33,1.07,2.34,1.11,2.38,-2.47,-2.66,-2.82,-1.39,-1.36,-1.27
123.55,1.09,2.39,1.05,2.34,-2.57,-2.71,-2.86,-1.47,-1.52,-1.30
124.79,1.16,2.49,1.16,2.48,-2.66,-2.76,-2.90,-1.49,-1.50,-1.33
126.03,1.24,2.60,1.36,2.72,-2.74,-2.81,-2.93,-1.50,-1.38,-1.36
127.29,1.63,3.01,1.62,3.00,-2.85,-2.87,-2.96,-1.21,-1.23,-1.38
128.57,1.88,3.30,1.74,3.15,-2.97,-2.92,-2.99,-1.08,-1.23,-1.42
129.85,1.83,3.28,1.77,3.21,-3.10,-2.98,-3.02,-1.26,-1.33,-1.45
131.15,1.50,2.98,1.71,3.19,-3.23,-3.03,-3.04,-1.72,-1.52,-1.48
132.46,1.72,3.23,1.70,3.20,-3.33,-3.10,-3.05,-1.60,-1.63,-1.51
133.79,1.83,3.37,1.78,3.32,-3.40,-3.16,-3.07,-1.56,-1.61,-1.54
135.12,1.92,3.49,1.93,3.49,-3.46,-3.23,-3.08,-1.53,-1.53,-1.57
136.48,1.98,3.57,1.98,3.58,-3.52,-3.29,-3.09,-1.54,-1.54,-1.59
137.84,2.02,3.65,2.01,3.63,-3.61,-3.37,-3.10,-1.59,-1.60,-1.63
139.22,2.02,3.68,2.02,3.68,-3.71,-3.44,-3.11,-1.68,-1.68,-1.66
140.61,2.03,3.72,2.04,3.73,-3.80,-3.51,-3.11,-1.76,-1.75,-1.69
142.02,2.11,3.82,2.15,3.86,-3.87,-3.59,-3.12,-1.76,-1.72,-1.71
143.44,2.22,3.96,2.28,4.02,-3.94,-3.67,-3.12,-1.72,-1.67,-1.74
144.87,2.47,4.25,2.31,4.08,-4.02,-3.76,-3.13,-1.55,-1.71,-1.78
146.32,2.29,4.11,2.29,4.10,-4.11,-3.84,-3.13,-1.81,-1.81,-1.82
147.78,2.12,3.97,2.28,4.13,-4.19,-3.92,-3.13,-2.07,-1.91,-1.85
149.26,2.31,4.21,2.28,4.18,-4.28,-4.01,-3.14,-1.96,-1.99,-1.90
150.75,2.43,4.39,2.37,4.33,-4.35,-4.10,-3.14,-1.92,-1.98,-1.96
152.26,2.43,4.46,2.46,4.48,-4.42,-4.19,-3.15,-1.98,-1.96,-2.03
153.78,2.43,4.53,2.45,4.54,-4.49,-4.28,-3.15,-2.05,-2.04,-2.10
155.32,2.43,4.60,2.37,4.54,-4.56,-4.37,-3.16,-2.12,-2.18,-2.17
156.88,2.29,4.54,2.31,4.56,-4.60,-4.46,-3.17,-2.30,-2.28,-2.25
158.44,2.18,4.51,2.27,4.59,-4.60,-4.55,-3.18,-2.42,-2.33,-2.33
160.03,2.27,4.68,2.23,4.64,-4.56,-4.64,-3.19,-2.29,-2.33,-2.41
161.63,2.20,4.68,2.17,4.64,-4.50,-4.73,-3.21,-2.30,-2.33,-2.48
163.24,2.07,4.61,2.03,4.57,-4.45,-4.82,-3.22,-2.37,-2.41,-2.54
164.88,1.77,4.36,1.81,4.40,-4.41,-4.91,-3.24,-2.64,-2.60,-2.59
166.53,1.61,4.25,1.60,4.24,-4.40,-4.99,-3.26,-2.79,-2.80,-2.64
168.19,1.50,4.18,1.53,4.21,-4.42,-5.08,-3.29,-2.91,-2.88,-2.68
169.87,1.54,4.26,1.62,4.33,-4.46,-5.16,-3.31,-2.92,-2.84,-2.72
171.57,1.85,4.59,1.80,4.53,-4.55,-5.24,-3.34,-2.69,-2.75,-2.74
173.29,2.01,4.76,1.97,4.72,-4.66,-5.32,-3.37,-2.65,-2.69,-2.75
175.02,2.12,4.88,2.10,4.86,-4.79,-5.39,-3.41,-2.67,-2.69,-2.76
176.77,2.13,4.90,2.21,4.98,-4.92,-5.46,-3.44,-2.79,-2.71,-2.77
178.54,2.32,5.10,2.34,5.11,-5.04,-5.53,-3.48,-2.71,-2.70,-2.78
180.32,2.50,5.27,2.45,5.22,-5.12,-5.59,-3.52,-2.62,-2.67,-2.77
182.13,2.52,5.28,2.48,5.25,-5.19,-5.64,-3.57,-2.66,-2.70,-2.76
183.95,2.44,5.21,2.43,5.19,-5.24,-5.69,-3.62,-2.79,-2.80,-2.77
185.79,2.31,5.08,2.40,5.17,-5.28,-5.74,-3.67,-2.97,-2.88,-2.77
187.65,2.41,5.20,2.44,5.22,-5.32,-5.78,-3.72,-2.91,-2.88,-2.79
189.52,2.59,5.39,2.54,5.33,-5.37,-5.82,-3.77,-2.77,-2.83,-2.80
191.42,2.65,5.47,2.64,5.46,-5.41,-5.85,-3.83,-2.76,-2.77,-2.82
193.33,2.67,5.51,2.69,5.52,-5.46,-5.87,-3.89,-2.79,-2.77,-2.84
195.27,2.69,5.55,2.69,5.55,-5.52,-5.89,-3.95,-2.82,-2.82,-2.86
197.22,2.70,5.58,2.71,5.58,-5.57,-5.90,-4.02,-2.86,-2.86,-2.88
199.19,2.71,5.61,2.71,5.61,-5.61,-5.90,-4.08,-2.90,-2.90,-2.90
201.18,2.72,5.64,2.72,5.64,-5.66,-5.90,-4.15,-2.93,-2.94,-2.92
203.19,2.72,5.66,2.73,5.66,-5.69,-5.89,-4.22,-2.97,-2.97,-2.94
205.23,2.73,5.69,2.73,5.68,-5.72,-5.87,-4.29,-2.99,-3.00,-2.96
207.28,2.73,5.70,2.72,5.69,-5.74,-5.85,-4.36,-3.01,-3.02,-2.97
209.35,2.72,5.71,2.76,5.75,-5.74,-5.83,-4.43,-3.01,-2.98,-2.99
211.44,2.76,5.78,2.83,5.84,-5.72,-5.80,-4.50,-2.96,-2.89,-3.02
213.56,2.89,5.92,2.80,5.82,-5.71,-5.76,-4.57,-2.82,-2.91,-3.03
215.69,2.80,5.84,2.69,5.72,-5.69,-5.72,-4.64,-2.89,-3.01,-3.04
217.85,2.38,5.43,2.55,5.60,-5.66,-5.67,-4.71,-3.28,-3.12,-3.05
220.03,2.40,5.46,2.43,5.50,-5.62,-5.62,-4.78,-3.22,-3.19,-3.06
222.23,2.47,5.56,2.42,5.49,-5.57,-5.57,-4.85,-3.10,-3.16,-3.09
224.45,2.50,5.58,2.51,5.59,-5.53,-5.51,-4.91,-3.02,-3.02,-3.08
226.70,2.50,5.58,2.51,5.59,-5.49,-5.45,-4.97,-2.99,-2.98,-3.08
228.96,2.51,5.58,2.43,5.49,-5.47,-5.38,-5.03,-2.96,-3.05,-3.07
231.25,2.31,5.37,2.36,5.42,-5.46,-5.32,-5.08,-3.15,-3.10,-3.06
233.57,2.23,5.28,2.33,5.38,-5.44,-5.25,-5.13,-3.21,-3.11,-3.05
235.90,2.41,5.45,2.36,5.40,-5.42,-5.18,-5.17,-3.00,-3.05,-3.04
238.26,2.44,5.47,2.43,5.45,-5.39,-5.11,-5.21,-2.94,-2.95,-3.03
240.64,2.47,5.47,2.41,5.41,-5.36,-5.04,-5.24,-2.88,-2.94,-3.00
243.05,2.33,5.30,2.33,5.30,-5.33,-4.96,-5.27,-3.00,-3.00,-2.97
245.48,2.19,5.14,2.31,5.25,-5.31,-4.89,-5.29,-3.11,-3.00,-2.95
247.93,2.34,5.26,2.33,5.25,-5.27,-4.81,-5.31,-2.93,-2.94,-2.92
250.41,2.43,5.33,2.38,5.27,-5.24,-4.74,-5.32,-2.80,-2.86,-2.90
252.92,2.42,5.29,2.37,5.24,-5.20,-4.66,-5.32,-2.78,-2.83,-2.87
255.45,2.24,5.09,2.30,5.14,-5.16,-4.59,-5.32,-2.91,-2.86,-2.85
258.00,2.19,5.02,2.23,5.05,-5.11,-4.52,-5.31,-2.92,-2.88,-2.83
260.58,2.21,5.02,2.20,5.00,-5.05,-4.44,-5.29,-2.84,-2.85,-2.81
263.19,2.22,5.00,2.22,5.00,-4.95,-4.37,-5.27,-2.73,-2.73,-2.78
265.82,2.19,4.95,2.20,4.95,-4.83,-4.30,-5.24,-2.63,-2.63,-2.76
268.48,2.11,4.85,2.06,4.79,-4.69,-4.23,-5.21,-2.57,-2.63,-2.74
271.16,1.91,4.62,1.89,4.60,-4.56,-4.16,-5.18,-2.65,-2.67,-2.71
273.87,1.62,4.31,1.76,4.44,-4.46,-4.10,-5.14,-2.84,-2.71,-2.69
276.61,1.67,4.33,1.60,4.25,-4.40,-4.03,-5.09,-2.72,-2.80,-2.66
279.38,1.59,4.22,1.48,4.11,-4.34,-3.97,-5.04,-2.74,-2.86,-2.63
282.17,1.35,3.96,1.54,4.13,-4.28,-3.91,-4.99,-2.93,-2.75,-2.61
284.99,1.54,4.11,1.64,4.21,-4.23,-3.85,-4.94,-2.69,-2.59,-2.57
287.84,1.97,4.52,1.78,4.32,-4.19,-3.79,-4.89,-2.21,-2.41,-2.55
290.72,1.88,4.40,1.86,4.38,-4.12,-3.73,-4.84,-2.24,-2.26,-2.52
293.63,1.70,4.19,1.75,4.23,-4.04,-3.68,-4.78,-2.33,-2.29,-2.49
296.57,1.50,3.96,1.49,3.95,-3.93,-3.63,-4.72,-2.42,-2.44,-2.46
299.53,1.26,3.69,1.29,3.72,-3.79,-3.58,-4.67,-2.52,-2.50,-2.43
302.53,1.10,3.51,1.12,3.52,-3.62,-3.53,-4.61,-2.51,-2.50,-2.41
305.55,1.01,3.38,0.99,3.36,-3.45,-3.48,-4.56,-2.43,-2.46,-2.37
308.61,0.90,3.25,0.90,3.24,-3.29,-3.44,-4.51,-2.39,-2.39,-2.35
311.69,0.81,3.13,0.82,3.14,-3.17,-3.40,-4.45,-2.36,-2.35,-2.32
314.81,0.76,3.06,0.76,3.06,-3.09,-3.36,-4.40,-2.33,-2.33,-2.30
317.96,0.73,3.01,0.76,3.04,-3.05,-3.32,-4.36,-2.31,-2.29,-2.28
321.14,0.76,3.03,0.76,3.02,-3.00,-3.28,-4.31,-2.24,-2.24,-2.27
324.35,0.79,3.04,0.74,2.99,-2.95,-3.25,-4.27,-2.16,-2.22,-2.25
327.59,0.68,2.92,0.72,2.95,-2.90,-3.22,-4.23,-2.22,-2.18,-2.24
330.87,0.63,2.86,0.69,2.91,-2.84,-3.19,-4.19,-2.21,-2.15,-2.23
334.18,0.67,2.88,0.61,2.82,-2.78,-3.17,-4.15,-2.11,-2.18,-2.21
337.52,0.56,2.76,0.51,2.71,-2.72,-3.14,-4.12,-2.16,-2.21,-2.20
340.90,0.33,2.52,0.42,2.61,-2.66,-3.12,-4.09,-2.32,-2.24,-2.19
344.30,0.32,2.50,0.35,2.53,-2.60,-3.10,-4.06,-2.27,-2.25,-2.18
347.75,0.38,2.56,0.34,2.51,-2.54,-3.09,-4.04,-2.16,-2.20,-2.18
351.23,0.36,2.53,0.36,2.53,-2.50,-3.07,-4.02,-2.13,-2.14,-2.17
354.74,0.34,2.52,0.33,2.50,-2.46,-3.06,-4.00,-2.12,-2.13,-2.18
358.28,0.28,2.45,0.29,2.46,-2.45,-3.05,-3.99,-2.16,-2.15,-2.17
361.87,0.25,2.42,0.28,2.44,-2.44,-3.04,-3.98,-2.19,-2.16,-2.17
365.49,0.28,2.44,0.28,2.44,-2.45,-3.04,-3.97,-2.16,-2.17,-2.16
369.14,0.30,2.47,0.27,2.43,-2.45,-3.04,-3.97,-2.15,-2.19,-2.17
372.83,0.26,2.43,0.28,2.45,-2.46,-3.04,-3.96,-2.20,-2.18,-2.17
376.56,0.25,2.43,0.31,2.48,-2.47,-3.04,-3.97,-2.22,-2.16,-2.18
380.33,0.39,2.56,0.35,2.52,-2.50,-3.05,-3.97,-2.11,-2.15,-2.17
384.13,0.42,2.59,0.39,2.57,-2.54,-3.06,-3.98,-2.12,-2.15,-2.17
387.97,0.41,2.59,0.41,2.59,-2.59,-3.07,-3.99,-2.18,-2.18,-2.18
391.85,0.40,2.59,0.44,2.62,-2.65,-3.08,-4.00,-2.25,-2.21,-2.19
395.77,0.48,2.66,0.50,2.69,-2.72,-3.10,-4.01,-2.23,-2.21,-2.18
399.73,0.64,2.83,0.60,2.78,-2.78,-3.12,-4.03,-2.14,-2.19,-2.19
403.72,0.69,2.88,0.70,2.89,-2.86,-3.14,-4.04,-2.17,-2.16,-2.19
407.76,0.77,2.98,0.78,2.98,-2.95,-3.16,-4.06,-2.17,-2.17,-2.21
411.84,0.84,3.05,0.83,3.04,-3.04,-3.19,-4.08,-2.19,-2.20,-2.21
415.96,0.90,3.11,0.91,3.12,-3.13,-3.22,-4.11,-2.23,-2.23,-2.21
420.12,0.99,3.20,1.00,3.21,-3.24,-3.25,-4.13,-2.24,-2.24,-2.21
424.32,1.11,3.32,1.13,3.33,-3.34,-3.29,-4.15,-2.23,-2.21,-2.21
428.56,1.27,3.47,1.26,3.46,-3.45,-3.33,-4.17,-2.18,-2.19,-2.20
432.85,1.41,3.60,1.38,3.57,-3.56,-3.37,-4.20,-2.15,-2.18,-2.19
437.18,1.48,3.66,1.50,3.66,-3.67,-3.41,-4.22,-2.19,-2.18,-2.18
441.55,1.60,3.74,1.65,3.80,-3.79,-3.46,-4.24,-2.19,-2.14,-2.14
445.96,1.81,3.92,1.82,3.93,-3.91,-3.50,-4.26,-2.10,-2.09,-2.11
450.42,2.05,4.13,1.96,4.03,-4.02,-3.55,-4.28,-1.97,-2.07,-2.08
454.93,2.06,4.09,2.09,4.12,-4.13,-3.61,-4.30,-2.07,-2.04,-2.03
459.48,2.13,4.12,2.21,4.20,-4.23,-3.66,-4.31,-2.10,-2.02,-1.99
464.07,2.40,4.34,2.37,4.31,-4.32,-3.72,-4.32,-1.92,-1.95,-1.94
468.71,2.56,4.44,2.56,4.44,-4.41,-3.77,-4.33,-1.84,-1.85,-1.88
473.40,2.73,4.57,2.68,4.51,-4.47,-3.83,-4.33,-1.74,-1.79,-1.84
478.13,2.73,4.51,2.76,4.54,-4.52,-3.89,-4.33,-1.79,-1.77,-1.78
482.91,2.76,4.50,2.83,4.57,-4.56,-3.95,-4.33,-1.79,-1.73,-1.74
487.74,2.93,4.63,2.89,4.58,-4.58,-4.01,-4.32,-1.64,-1.69,-1.70
492.62,2.97,4.62,2.94,4.60,-4.59,-4.07,-4.31,-1.61,-1.64,-1.65
