frequency,raw,error,smoothed,error_smoothed,equalization,parametric_eq,fixed_band_eq,equalized_raw,equalized_smoothed,target
20.00,8.36,2.46,8.36,2.46,-2.47,-2.81,-1.32,5.90,5.89,5.90
20.20,8.38,2.48,8.38,2.49,-2.49,-2.81,-1.36,5.89,5.90,5.90
20.40,8.40,2.50,8.41,2.51,-2.51,-2.82,-1.39,5.89,5.90,5.90
20.61,8.43,2.53,8.43,2.53,-2.53,-2.82,-1.44,5.90,5.90,5.90
20.81,8.45,2.56,8.45,2.56,-2.55,-2.82,-1.48,5.90,5.90,5.89
21.02,8.47,2.58,8.47,2.58,-2.57,-2.82,-1.52,5.90,5.90,5.89
21.23,8.48,2.59,8.48,2.60,-2.59,-2.83,-1.56,5.89,5.89,5.89
21.44,8.50,2.60,8.50,2.61,-2.61,-2.83,-1.61,5.89,5.89,5.90
21.66,8.52,2.63,8.52,2.63,-2.63,-2.83,-1.66,5.89,5.89,5.89
21.87,8.54,2.65,8.54,2.65,-2.65,-2.84,-1.71,5.89,5.88,5.89
22.09,8.55,2.67,8.56,2.68,-2.67,-2.84,-1.75,5.88,5.88,5.88
22.31,8.57,2.69,8.57,2.70,-2.70,-2.84,-1.81,5.88,5.88,5.88
22.54,8.59,2.72,8.59,2.72,-2.72,-2.84,-1.86,5.87,5.87,5.87
22.76,8.60,2.73,8.61,2.74,-2.74,-2.85,-1.91,5.86,5.86,5.87
22.99,8.62,2.76,8.62,2.76,-2.77,-2.85,-1.96,5.86,5.86,5.86
23.22,8.64,2.79,8.64,2.79,-2.79,-2.85,-2.02,5.85,5.85,5.85
23.45,8.65,2.80,8.66,2.81,-2.81,-2.86,-2.08,5.84,5.85,5.85
23.69,8.67,2.83,8.67,2.83,-2.83,-2.86,-2.14,5.85,5.84,5.84
23.92,8.68,2.85,8.68,2.85,-2.84,-2.86,-2.20,5.84,5.84,5.83
24.16,8.69,2.86,8.69,2.86,-2.86,-2.87,-2.26,5.83,5.83,5.83
24.40,8.69,2.86,8.70,2.87,-2.88,-2.87,-2.32,5.82,5.82,5.83
24.65,8.71,2.88,8.71,2.88,-2.89,-2.87,-2.38,5.82,5.82,5.83
24.89,8.72,2.89,8.72,2.90,-2.90,-2.88,-2.44,5.82,5.82,5.83
25.14,8.73,2.91,8.73,2.91,-2.91,-2.88,-2.51,5.82,5.82,5.82
25.39,8.74,2.93,8.74,2.93,-2.92,-2.88,-2.57,5.82,5.82,5.81
25.65,8.75,2.94,8.75,2.94,-2.94,-2.89,-2.63,5.82,5.82,5.81
25.91,8.76,2.95,8.76,2.95,-2.94,-2.89,-2.70,5.82,5.81,5.81
26.16,8.76,2.94,8.77,2.95,-2.95,-2.89,-2.76,5.81,5.81,5.82
26.43,8.77,2.95,8.77,2.95,-2.96,-2.90,-2.83,5.81,5.81,5.82
26.69,8.78,2.96,8.78,2.96,-2.97,-2.90,-2.89,5.82,5.81,5.82
26.96,8.78,2.97,8.79,2.97,-2.97,-2.91,-2.95,5.81,5.81,5.81
27.23,8.79,2.98,8.79,2.98,-2.98,-2.91,-3.01,5.82,5.81,5.81
27.50,8.79,2.98,8.79,2.98,-2.98,-2.91,-3.07,5.81,5.81,5.81
27.77,8.79,2.97,8.80,2.98,-2.99,-2.92,-3.13,5.80,5.81,5.82
28.05,8.80,2.99,8.80,2.99,-2.99,-2.92,-3.19,5.81,5.80,5.81
28.33,8.80,3.00,8.80,3.00,-3.00,-2.93,-3.24,5.80,5.80,5.80
28.62,8.80,3.01,8.80,3.01,-3.01,-2.93,-3.29,5.80,5.80,5.79
28.90,8.80,3.00,8.80,3.01,-3.01,-2.93,-3.34,5.79,5.79,5.80
29.19,8.80,3.01,8.80,3.02,-3.02,-2.94,-3.39,5.78,5.79,5.79
29.48,8.80,3.02,8.80,3.02,-3.02,-2.94,-3.43,5.78,5.78,5.78
29.78,8.80,3.03,8.80,3.03,-3.03,-2.95,-3.47,5.77,5.77,5.77
30.08,8.79,3.02,8.80,3.03,-3.03,-2.95,-3.50,5.76,5.76,5.77
30.38,8.79,3.03,8.79,3.03,-3.03,-2.96,-3.53,5.76,5.76,5.76
30.68,8.79,3.04,8.79,3.04,-3.03,-2.96,-3.55,5.76,5.75,5.75
30.99,8.78,3.03,8.78,3.04,-3.03,-2.97,-3.58,5.75,5.75,5.75
31.30,8.78,3.03,8.78,3.03,-3.03,-2.97,-3.59,5.75,5.75,5.75
31.61,8.77,3.02,8.77,3.03,-3.03,-2.98,-3.61,5.74,5.74,5.75
31.93,8.77,3.03,8.77,3.03,-3.03,-2.98,-3.61,5.75,5.74,5.74
32.24,8.76,3.01,8.76,3.02,-3.02,-2.99,-3.62,5.74,5.74,5.75
32.57,8.76,3.02,8.76,3.02,-3.02,-2.99,-3.62,5.74,5.74,5.74
32.89,8.75,3.01,8.75,3.01,-3.01,-3.00,-3.62,5.74,5.74,5.74
33.22,8.74,3.00,8.74,3.01,-3.01,-3.00,-3.61,5.73,5.73,5.74
33.55,8.73,3.00,8.73,3.01,-3.01,-3.01,-3.60,5.72,5.72,5.73
33.89,8.73,3.01,8.73,3.01,-3.01,-3.02,-3.58,5.72,5.72,5.72
34.23,8.71,3.01,8.72,3.01,-3.01,-3.02,-3.57,5.70,5.71,5.70
34.57,8.71,3.01,8.71,3.01,-3.01,-3.03,-3.55,5.70,5.70,5.70
34.92,8.69,3.01,8.69,3.01,-3.01,-3.03,-3.53,5.68,5.68,5.68
35.27,8.68,3.01,8.68,3.02,-3.02,-3.04,-3.50,5.66,5.66,5.67
35.62,8.67,3.03,8.67,3.03,-3.03,-3.05,-3.48,5.64,5.64,5.64
35.97,8.65,3.03,8.65,3.04,-3.04,-3.05,-3.45,5.61,5.61,5.62
36.33,8.63,3.04,8.64,3.05,-3.05,-3.06,-3.43,5.58,5.59,5.59
36.70,8.62,3.06,8.62,3.06,-3.06,-3.06,-3.40,5.56,5.56,5.56
37.06,8.61,3.08,8.61,3.08,-3.08,-3.07,-3.37,5.53,5.53,5.53
37.43,8.59,3.09,8.59,3.10,-3.09,-3.08,-3.34,5.50,5.50,5.50
37.81,8.58,3.11,8.58,3.11,-3.11,-3.08,-3.32,5.47,5.47,5.47
38.19,8.55,3.12,8.56,3.12,-3.12,-3.09,-3.29,5.43,5.43,5.43
38.57,8.54,3.13,8.54,3.14,-3.14,-3.10,-3.27,5.41,5.40,5.41
38.95,8.52,3.14,8.52,3.15,-3.15,-3.10,-3.24,5.37,5.37,5.38
39.34,8.50,3.16,8.50,3.16,-3.16,-3.11,-3.22,5.34,5.34,5.34
39.74,8.48,3.17,8.48,3.17,-3.17,-3.12,-3.19,5.31,5.31,5.31
40.14,8.46,3.17,8.46,3.17,-3.17,-3.12,-3.17,5.29,5.29,5.29
40.54,8.44,3.17,8.44,3.18,-3.18,-3.13,-3.16,5.26,5.26,5.27
40.94,8.42,3.18,8.42,3.19,-3.19,-3.14,-3.14,5.23,5.23,5.24
41.35,8.40,3.19,8.40,3.19,-3.19,-3.15,-3.12,5.21,5.21,5.21
41.76,8.38,3.20,8.38,3.20,-3.19,-3.15,-3.11,5.19,5.19,5.18
42.18,8.36,3.19,8.36,3.20,-3.20,-3.16,-3.10,5.16,5.16,5.17
42.60,8.33,3.19,8.33,3.20,-3.20,-3.17,-3.09,5.13,5.14,5.14
43.03,8.31,3.20,8.31,3.20,-3.20,-3.18,-3.08,5.11,5.11,5.11
43.46,8.28,3.19,8.28,3.20,-3.20,-3.18,-3.08,5.09,5.09,5.09
43.90,8.26,3.19,8.26,3.20,-3.19,-3.19,-3.08,5.07,5.07,5.07
44.33,8.23,3.20,8.23,3.19,-3.19,-3.20,-3.08,5.04,5.04,5.03
44.78,8.20,3.19,8.20,3.19,-3.19,-3.21,-3.08,5.01,5.01,5.01
45.23,8.17,3.17,8.17,3.19,-3.19,-3.21,-3.09,4.98,4.98,5.00
45.68,8.14,3.18,8.14,3.19,-3.19,-3.22,-3.09,4.95,4.95,4.96
46.13,8.12,3.21,8.12,3.20,-3.20,-3.23,-3.10,4.92,4.92,4.91
46.60,8.08,3.19,8.09,3.20,-3.20,-3.24,-3.11,4.88,4.89,4.89
47.06,8.06,3.21,8.06,3.21,-3.21,-3.25,-3.13,4.85,4.85,4.85
47.53,8.03,3.21,8.03,3.22,-3.22,-3.25,-3.14,4.81,4.81,4.82
48.01,7.99,3.23,8.00,3.23,-3.23,-3.26,-3.16,4.76,4.77,4.76
48.49,7.96,3.23,7.96,3.24,-3.24,-3.27,-3.18,4.72,4.72,4.73
48.97,7.93,3.25,7.93,3.25,-3.26,-3.28,-3.21,4.67,4.67,4.68
49.46,7.90,3.26,7.90,3.27,-3.27,-3.29,-3.23,4.63,4.63,4.64
49.96,7.87,3.30,7.87,3.29,-3.29,-3.30,-3.26,4.58,4.58,4.57
50.46,7.83,3.30,7.83,3.31,-3.30,-3.31,-3.28,4.53,4.53,4.53
50.96,7.80,3.32,7.80,3.32,-3.31,-3.31,-3.31,4.49,4.48,4.48
51.47,7.76,3.32,7.76,3.33,-3.33,-3.32,-3.34,4.43,4.44,4.44
51.99,7.73,3.34,7.73,3.34,-3.34,-3.33,-3.37,4.39,4.39,4.39
52.51,7.70,3.35,7.70,3.34,-3.35,-3.34,-3.40,4.35,4.35,4.35
53.03,7.66,3.34,7.66,3.35,-3.36,-3.35,-3.43,4.30,4.30,4.32
53.56,7.62,3.35,7.63,3.36,-3.37,-3.36,-3.47,4.25,4.26,4.27
54.10,7.59,3.38,7.59,3.37,-3.38,-3.37,-3.50,4.22,4.21,4.21
54.64,7.55,3.38,7.55,3.39,-3.38,-3.38,-3.53,4.17,4.17,4.17
55.18,7.51,3.40,7.51,3.40,-3.39,-3.38,-3.56,4.12,4.12,4.11
55.74,7.47,3.40,7.47,3.40,-3.40,-3.39,-3.59,4.07,4.07,4.07
56.29,7.43,3.40,7.43,3.41,-3.41,-3.40,-3.62,4.02,4.02,4.03
56.86,7.39,3.40,7.39,3.41,-3.41,-3.41,-3.65,3.98,3.98,3.99
57.42,7.35,3.42,7.36,3.42,-3.41,-3.42,-3.68,3.94,3.94,3.93
58.00,7.32,3.43,7.32,3.43,-3.42,-3.43,-3.70,3.91,3.90,3.89
58.58,7.28,3.42,7.28,3.42,-3.42,-3.44,-3.73,3.86,3.86,3.86
59.16,7.23,3.41,7.24,3.42,-3.43,-3.45,-3.75,3.80,3.81,3.82
59.76,7.19,3.41,7.19,3.42,-3.44,-3.45,-3.77,3.75,3.76,3.78
60.35,7.15,3.44,7.15,3.44,-3.45,-3.46,-3.78,3.70,3.70,3.71
60.96,7.11,3.45,7.11,3.46,-3.47,-3.47,-3.79,3.65,3.65,3.66
61.57,7.07,3.49,7.07,3.48,-3.48,-3.48,-3.80,3.59,3.59,3.58
62.18,7.02,3.50,7.02,3.51,-3.50,-3.49,-3.81,3.52,3.52,3.52
62.80,6.98,3.52,6.98,3.53,-3.52,-3.50,-3.81,3.46,3.46,3.46
63.43,6.94,3.55,6.94,3.55,-3.54,-3.51,-3.81,3.40,3.40,3.39
64.07,6.90,3.56,6.90,3.56,-3.55,-3.52,-3.81,3.35,3.34,3.34
64.71,6.85,3.56,6.85,3.57,-3.57,-3.52,-3.81,3.29,3.29,3.29
65.35,6.80,3.56,6.81,3.57,-3.58,-3.53,-3.80,3.23,3.23,3.24
66.01,6.76,3.58,6.76,3.58,-3.58,-3.54,-3.79,3.18,3.18,3.18
66.67,6.72,3.58,6.72,3.59,-3.59,-3.55,-3.77,3.13,3.13,3.14
67.33,6.67,3.60,6.67,3.60,-3.60,-3.56,-3.76,3.07,3.07,3.07
68.01,6.62,3.60,6.62,3.61,-3.61,-3.57,-3.74,3.02,3.02,3.02
68.69,6.58,3.62,6.58,3.62,-3.62,-3.57,-3.72,2.97,2.96,2.96
69.37,6.53,3.62,6.53,3.63,-3.63,-3.58,-3.70,2.91,2.91,2.91
70.07,6.49,3.63,6.49,3.63,-3.64,-3.59,-3.68,2.85,2.85,2.86
70.77,6.44,3.64,6.44,3.64,-3.65,-3.60,-3.65,2.79,2.79,2.80
71.48,6.39,3.65,6.39,3.66,-3.66,-3.61,-3.63,2.73,2.73,2.74
72.19,6.34,3.67,6.35,3.67,-3.67,-3.61,-3.60,2.67,2.67,2.67
72.91,6.30,3.68,6.30,3.69,-3.68,-3.62,-3.58,2.62,2.61,2.62
73.64,6.25,3.70,6.25,3.70,-3.69,-3.63,-3.55,2.56,2.56,2.55
74.38,6.19,3.70,6.20,3.71,-3.70,-3.64,-3.53,2.49,2.50,2.49
75.12,6.15,3.71,6.15,3.71,-3.71,-3.65,-3.51,2.44,2.44,2.44
75.87,6.10,3.70,6.10,3.71,-3.72,-3.65,-3.48,2.39,2.38,2.40
76.63,6.05,3.71,6.05,3.72,-3.72,-3.66,-3.46,2.33,2.33,2.34
77.40,6.00,3.72,6.00,3.72,-3.72,-3.67,-3.44,2.28,2.28,2.28
78.17,5.96,3.74,5.96,3.73,-3.73,-3.67,-3.42,2.24,2.23,2.22
78.95,5.90,3.71,5.91,3.73,-3.73,-3.68,-3.40,2.17,2.18,2.19
79.74,5.86,3.73,5.86,3.73,-3.73,-3.69,-3.39,2.13,2.13,2.13
80.54,5.80,3.73,5.81,3.73,-3.73,-3.70,-3.37,2.07,2.07,2.07
81.35,5.76,3.73,5.76,3.73,-3.74,-3.70,-3.36,2.03,2.02,2.03
82.16,5.71,3.73,5.71,3.73,-3.74,-3.71,-3.35,1.97,1.97,1.98
82.98,5.65,3.73,5.66,3.74,-3.74,-3.72,-3.34,1.91,1.92,1.92
83.81,5.61,3.74,5.61,3.74,-3.74,-3.72,-3.34,1.87,1.87,1.87
84.65,5.56,3.75,5.56,3.75,-3.74,-3.73,-3.34,1.82,1.81,1.81
85.50,5.50,3.74,5.51,3.75,-3.75,-3.74,-3.34,1.76,1.76,1.76
86.35,5.46,3.75,5.46,3.75,-3.75,-3.74,-3.34,1.71,1.71,1.71
87.22,5.40,3.74,5.40,3.75,-3.75,-3.75,-3.34,1.65,1.65,1.66
88.09,5.35,3.75,5.35,3.75,-3.75,-3.76,-3.35,1.60,1.60,1.60
88.97,5.30,3.75,5.30,3.76,-3.76,-3.76,-3.36,1.55,1.55,1.55
89.86,5.25,3.76,5.25,3.76,-3.76,-3.77,-3.37,1.49,1.49,1.49
90.76,5.20,3.77,5.20,3.77,-3.76,-3.78,-3.38,1.44,1.44,1.43
91.66,5.14,3.76,5.14,3.77,-3.77,-3.78,-3.40,1.37,1.38,1.38
92.58,5.09,3.77,5.09,3.77,-3.78,-3.79,-3.42,1.31,1.31,1.32
93.51,5.04,3.78,5.04,3.78,-3.79,-3.80,-3.44,1.25,1.25,1.26
94.44,4.99,3.79,4.99,3.80,-3.80,-3.81,-3.46,1.19,1.19,1.20
95.39,4.94,3.81,4.94,3.81,-3.82,-3.81,-3.49,1.13,1.12,1.13
96.34,4.89,3.83,4.89,3.83,-3.83,-3.82,-3.52,1.06,1.06,1.06
97.30,4.83,3.83,4.84,3.85,-3.85,-3.83,-3.55,0.98,0.99,1.00
98.28,4.79,3.88,4.79,3.87,-3.87,-3.84,-3.58,0.93,0.92,0.91
99.26,4.73,3.89,4.73,3.89,-3.88,-3.84,-3.62,0.85,0.85,0.84
100.25,4.68,3.90,4.68,3.90,-3.90,-3.85,-3.65,0.78,0.78,0.78
101.25,4.62,3.90,4.62,3.91,-3.91,-3.86,-3.69,0.71,0.71,0.72
102.27,4.57,3.91,4.57,3.92,-3.92,-3.87,-3.73,0.65,0.65,0.66
103.29,4.52,3.93,4.52,3.93,-3.93,-3.88,-3.77,0.59,0.59,0.59
104.32,4.47,3.93,4.47,3.94,-3.94,-3.88,-3.81,0.54,0.54,0.54
105.37,4.42,3.94,4.42,3.94,-3.94,-3.89,-3.85,0.48,0.48,0.48
106.42,4.36,3.94,4.36,3.95,-3.95,-3.90,-3.89,0.41,0.42,0.42
107.48,4.31,3.96,4.31,3.96,-3.96,-3.91,-3.94,0.36,0.36,0.35
108.56,4.26,3.96,4.26,3.96,-3.96,-3.92,-3.98,0.30,0.30,0.30
109.64,4.21,3.96,4.21,3.97,-3.97,-3.93,-4.02,0.24,0.24,0.25
110.74,4.16,3.98,4.16,3.98,-3.98,-3.94,-4.06,0.18,0.18,0.18
111.85,4.11,3.99,4.11,3.99,-3.99,-3.95,-4.10,0.12,0.12,0.12
112.97,4.06,4.00,4.06,4.00,-4.00,-3.96,-4.14,0.06,0.06,0.06
114.10,4.01,4.01,4.01,4.01,-4.02,-3.98,-4.18,-0.01,-0.01,-0.00
115.24,3.95,4.02,3.95,4.03,-4.03,-3.99,-4.21,-0.08,-0.08,-0.07
116.39,3.90,4.05,3.90,4.05,-4.05,-4.00,-4.25,-0.15,-0.15,-0.15
117.55,3.85,4.06,3.85,4.07,-4.07,-4.01,-4.28,-0.21,-0.22,-0.21
118.73,3.80,4.09,3.80,4.09,-4.08,-4.03,-4.31,-0.28,-0.28,-0.29
119.92,3.74,4.10,3.74,4.10,-4.10,-4.04,-4.33,-0.36,-0.36,-0.36
121.12,3.69,4.11,3.69,4.12,-4.12,-4.05,-4.36,-0.43,-0.43,-0.42
122.33,3.64,4.14,3.64,4.14,-4.14,-4.07,-4.37,-0.50,-0.50,-0.50
123.55,3.59,4.15,3.59,4.16,-4.16,-4.08,-4.39,-0.57,-0.57,-0.56
124.79,3.55,4.18,3.54,4.18,-4.18,-4.10,-4.40,-0.63,-0.64,-0.63
126.03,3.49,4.19,3.50,4.20,-4.21,-4.11,-4.41,-0.71,-0.71,-0.70
127.29,3.44,4.23,3.44,4.23,-4.23,-4.13,-4.42,-0.79,-0.79,-0.79
128.57,3.39,4.25,3.39,4.25,-4.25,-4.14,-4.42,-0.86,-0.86,-0.86
129.85,3.33,4.27,3.33,4.28,-4.27,-4.16,-4.42,-0.94,-0.94,-0.94
131.15,3.28,4.29,3.28,4.29,-4.29,-4.18,-4.42,-1.01,-1.01,-1.01
132.46,3.22,4.30,3.22,4.31,-4.30,-4.19,-4.41,-1.08,-1.08,-1.08
133.79,3.17,4.31,3.17,4.32,-4.32,-4.21,-4.40,-1.14,-1.15,-1.14
135.12,3.12,4.33,3.12,4.32,-4.33,-4.23,-4.39,-1.21,-1.20,-1.21
136.48,3.07,4.32,3.07,4.34,-4.34,-4.25,-4.37,-1.26,-1.26,-1.25
137.84,3.03,4.34,3.02,4.34,-4.34,-4.27,-4.36,-1.31,-1.32,-1.31
139.22,2.97,4.35,2.97,4.34,-4.35,-4.29,-4.34,-1.38,-1.37,-1.38
140.61,2.92,4.34,2.93,4.35,-4.35,-4.31,-4.32,-1.43,-1.42,-1.42
142.02,2.88,4.35,2.88,4.35,-4.35,-4.33,-4.30,-1.47,-1.48,-1.47
143.44,2.83,4.36,2.83,4.35,-4.36,-4.35,-4.28,-1.52,-1.53,-1.53
144.87,2.78,4.35,2.78,4.36,-4.36,-4.37,-4.27,-1.58,-1.57,-1.57
146.32,2.73,4.35,2.73,4.36,-4.36,-4.39,-4.25,-1.63,-1.62,-1.62
147.78,2.69,4.36,2.69,4.36,-4.36,-4.41,-4.23,-1.67,-1.67,-1.67
149.26,2.64,4.35,2.64,4.36,-4.36,-4.43,-4.21,-1.72,-1.72,-1.71
150.75,2.59,4.36,2.59,4.36,-4.36,-4.45,-4.19,-1.77,-1.76,-1.77
152.26,2.55,4.35,2.55,4.36,-4.36,-4.47,-4.18,-1.81,-1.81,-1.80
153.78,2.50,4.36,2.50,4.36,-4.36,-4.49,-4.16,-1.86,-1.86,-1.86
155.32,2.46,4.36,2.46,4.36,-4.37,-4.51,-4.15,-1.90,-1.91,-1.90
156.88,2.41,4.36,2.42,4.37,-4.37,-4.53,-4.14,-1.96,-1.95,-1.95
158.44,2.38,4.38,2.38,4.38,-4.38,-4.56,-4.13,-2.00,-2.00,-2.00
160.03,2.34,4.39,2.34,4.39,-4.39,-4.58,-4.12,-2.05,-2.05,-2.05
161.63,2.29,4.39,2.30,4.40,-4.40,-4.60,-4.12,-2.11,-2.11,-2.10
163.24,2.25,4.42,2.26,4.42,-4.42,-4.62,-4.12,-2.16,-2.16,-2.17
164.88,2.22,4.43,2.22,4.43,-4.43,-4.64,-4.12,-2.21,-2.21,-2.21
166.53,2.18,4.45,2.18,4.45,-4.45,-4.66,-4.12,-2.26,-2.27,-2.27
168.19,2.14,4.45,2.14,4.46,-4.46,-4.68,-4.13,-2.32,-2.32,-2.31
169.87,2.11,4.47,2.11,4.48,-4.48,-4.71,-4.14,-2.37,-2.37,-2.36
171.57,2.07,4.50,2.08,4.50,-4.50,-4.73,-4.15,-2.43,-2.42,-2.43
173.29,2.05,4.53,2.05,4.52,-4.52,-4.75,-4.17,-2.47,-2.47,-2.48
175.02,2.01,4.53,2.01,4.54,-4.54,-4.77,-4.19,-2.53,-2.53,-2.52
176.77,1.99,4.56,1.99,4.56,-4.57,-4.79,-4.21,-2.57,-2.58,-2.57
178.54,1.96,4.58,1.97,4.59,-4.59,-4.81,-4.24,-2.63,-2.63,-2.62
180.32,1.95,4.63,1.95,4.62,-4.62,-4.83,-4.27,-2.67,-2.68,-2.68
182.13,1.93,4.65,1.93,4.66,-4.66,-4.85,-4.30,-2.73,-2.72,-2.72
183.95,1.92,4.68,1.92,4.69,-4.70,-4.86,-4.34,-2.77,-2.77,-2.76
185.79,1.92,4.74,1.92,4.73,-4.74,-4.88,-4.38,-2.82,-2.82,-2.82
187.65,1.91,4.77,1.91,4.78,-4.78,-4.90,-4.42,-2.87,-2.87,-2.86
189.52,1.91,4.82,1.91,4.83,-4.83,-4.92,-4.46,-2.92,-2.91,-2.91
191.42,1.91,4.87,1.91,4.87,-4.87,-4.93,-4.51,-2.96,-2.96,-2.96
193.33,1.91,4.92,1.91,4.92,-4.92,-4.95,-4.56,-3.01,-3.01,-3.01
195.27,1.90,4.96,1.91,4.97,-4.96,-4.97,-4.61,-3.06,-3.06,-3.06
197.22,1.90,5.01,1.90,5.01,-5.00,-4.98,-4.67,-3.10,-3.10,-3.11
199.19,1.89,5.03,1.89,5.04,-5.04,-5.00,-4.72,-3.14,-3.14,-3.14
201.18,1.88,5.07,1.88,5.07,-5.06,-5.01,-4.78,-3.18,-3.18,-3.19
203.19,1.87,5.09,1.87,5.09,-5.09,-5.02,-4.84,-3.22,-3.22,-3.22
205.23,1.85,5.11,1.85,5.11,-5.11,-5.03,-4.91,-3.26,-3.26,-3.26
207.28,1.83,5.12,1.83,5.12,-5.13,-5.05,-4.97,-3.30,-3.30,-3.29
209.35,1.80,5.13,1.81,5.14,-5.15,-5.06,-5.03,-3.34,-3.34,-3.33
211.44,1.78,5.15,1.78,5.15,-5.16,-5.07,-5.10,-3.38,-3.38,-3.37
213.56,1.76,5.17,1.76,5.17,-5.17,-5.07,-5.16,-3.41,-3.41,-3.41
215.69,1.73,5.17,1.74,5.18,-5.17,-5.08,-5.22,-3.44,-3.44,-3.44
217.85,1.71,5.18,1.71,5.19,-5.18,-5.09,-5.29,-3.47,-3.47,-3.47
220.03,1.68,5.19,1.68,5.19,-5.18,-5.10,-5.35,-3.50,-3.50,-3.51
222.23,1.65,5.18,1.65,5.19,-5.18,-5.10,-5.41,-3.53,-3.53,-3.53
224.45,1.61,5.17,1.61,5.18,-5.18,-5.11,-5.46,-3.57,-3.57,-3.56
226.70,1.58,5.17,1.58,5.17,-5.18,-5.11,-5.52,-3.59,-3.59,-3.59
228.96,1.55,5.16,1.55,5.17,-5.17,-5.11,-5.57,-3.62,-3.62,-3.61
231.25,1.53,5.16,1.52,5.16,-5.16,-5.11,-5.61,-3.63,-3.64,-3.63
233.57,1.49,5.15,1.49,5.16,-5.16,-5.12,-5.65,-3.67,-3.66,-3.66
235.90,1.46,5.15,1.46,5.15,-5.15,-5.12,-5.69,-3.69,-3.69,-3.69
238.26,1.43,5.15,1.43,5.14,-5.14,-5.11,-5.72,-3.71,-3.71,-3.72
240.64,1.40,5.12,1.40,5.13,-5.13,-5.11,-5.75,-3.73,-3.73,-3.72
243.05,1.38,5.12,1.37,5.12,-5.12,-5.11,-5.77,-3.74,-3.75,-3.74
245.48,1.34,5.11,1.34,5.11,-5.11,-5.11,-5.78,-3.77,-3.77,-3.77
247.93,1.31,5.10,1.32,5.10,-5.10,-5.10,-5.78,-3.79,-3.78,-3.79
250.41,1.29,5.08,1.29,5.08,-5.08,-5.10,-5.78,-3.79,-3.80,-3.79
252.92,1.26,5.06,1.26,5.07,-5.07,-5.09,-5.78,-3.81,-3.81,-3.80
255.45,1.23,5.05,1.24,5.05,-5.06,-5.08,-5.76,-3.83,-3.82,-3.82
258.00,1.21,5.04,1.21,5.04,-5.04,-5.07,-5.74,-3.83,-3.83,-3.83
260.58,1.19,5.03,1.19,5.03,-5.03,-5.06,-5.71,-3.84,-3.84,-3.84
263.19,1.16,5.02,1.16,5.02,-5.02,-5.05,-5.68,-3.86,-3.86,-3.86
265.82,1.14,5.01,1.14,5.01,-5.01,-5.04,-5.64,-3.87,-3.87,-3.87
268.48,1.11,4.99,1.11,5.00,-5.00,-5.03,-5.60,-3.89,-3.89,-3.88
271.16,1.09,4.99,1.09,4.99,-4.99,-5.02,-5.55,-3.90,-3.90,-3.90
273.87,1.06,4.97,1.06,4.98,-4.98,-5.00,-5.49,-3.92,-3.92,-3.91
276.61,1.04,4.97,1.04,4.98,-4.97,-4.99,-5.44,-3.93,-3.93,-3.93
279.38,1.02,4.97,1.02,4.97,-4.96,-4.98,-5.38,-3.94,-3.94,-3.95
282.17,1.00,4.96,1.00,4.95,-4.95,-4.96,-5.31,-3.95,-3.95,-3.96
284.99,0.98,4.93,0.98,4.94,-4.94,-4.94,-5.25,-3.96,-3.96,-3.95
287.84,0.95,4.91,0.96,4.93,-4.93,-4.93,-5.18,-3.98,-3.97,-3.96
290.72,0.94,4.93,0.94,4.92,-4.92,-4.91,-5.11,-3.98,-3.98,-3.99
293.63,0.92,4.90,0.92,4.91,-4.91,-4.89,-5.04,-3.98,-3.99,-3.98
296.57,0.90,4.89,0.90,4.90,-4.89,-4.87,-4.97,-3.99,-3.99,-3.99
299.53,0.88,4.88,0.88,4.88,-4.88,-4.85,-4.90,-4.00,-4.00,-4.00
302.53,0.86,4.86,0.86,4.87,-4.87,-4.83,-4.83,-4.01,-4.01,-4.00
305.55,0.84,4.85,0.84,4.85,-4.85,-4.81,-4.76,-4.01,-4.01,-4.01
308.61,0.82,4.83,0.82,4.84,-4.84,-4.79,-4.69,-4.02,-4.02,-4.01
311.69,0.80,4.82,0.80,4.82,-4.82,-4.77,-4.62,-4.02,-4.02,-4.02
314.81,0.79,4.81,0.79,4.81,-4.81,-4.75,-4.56,-4.02,-4.02,-4.02
317.96,0.76,4.79,0.77,4.80,-4.79,-4.73,-4.49,-4.03,-4.03,-4.03
321.14,0.75,4.77,0.75,4.78,-4.78,-4.71,-4.43,-4.03,-4.03,-4.02
324.35,0.73,4.77,0.73,4.76,-4.76,-4.69,-4.37,-4.03,-4.03,-4.04
327.59,0.71,4.73,0.71,4.74,-4.75,-4.67,-4.31,-4.04,-4.03,-4.02
330.87,0.69,4.72,0.69,4.73,-4.73,-4.65,-4.26,-4.04,-4.03,-4.03
334.18,0.68,4.72,0.68,4.71,-4.71,-4.63,-4.21,-4.03,-4.03,-4.04
337.52,0.66,4.69,0.66,4.70,-4.69,-4.61,-4.16,-4.03,-4.03,-4.03
340.90,0.64,4.68,0.64,4.68,-4.68,-4.58,-4.11,-4.03,-4.03,-4.04
344.30,0.62,4.65,0.62,4.66,-4.66,-4.56,-4.07,-4.04,-4.04,-4.03
347.75,0.60,4.62,0.60,4.64,-4.64,-4.54,-4.03,-4.04,-4.03,-4.02
351.23,0.59,4.63,0.59,4.62,-4.62,-4.52,-3.99,-4.03,-4.03,-4.04
354.74,0.57,4.59,0.57,4.60,-4.60,-4.50,-3.96,-4.03,-4.03,-4.02
358.28,0.55,4.58,0.56,4.59,-4.58,-4.49,-3.93,-4.03,-4.03,-4.03
361.87,0.54,4.57,0.54,4.57,-4.57,-4.47,-3.90,-4.02,-4.03,-4.03
365.49,0.52,4.55,0.52,4.55,-4.55,-4.45,-3.88,-4.03,-4.03,-4.03
369.14,0.50,4.52,0.50,4.53,-4.53,-4.43,-3.86,-4.03,-4.03,-4.02
372.83,0.49,4.51,0.49,4.51,-4.51,-4.41,-3.84,-4.02,-4.03,-4.02
376.56,0.46,4.49,0.47,4.50,-4.50,-4.40,-3.82,-4.04,-4.03,-4.03
380.33,0.45,4.48,0.45,4.48,-4.48,-4.38,-3.81,-4.03,-4.03,-4.03
384.13,0.43,4.46,0.43,4.46,-4.46,-4.37,-3.80,-4.03,-4.03,-4.03
387.97,0.41,4.43,0.41,4.44,-4.44,-4.36,-3.79,-4.02,-4.03,-4.02
391.85,0.38,4.41,0.38,4.42,-4.41,-4.34,-3.78,-4.03,-4.03,-4.03
395.77,0.36,4.39,0.36,4.39,-4.39,-4.33,-3.78,-4.03,-4.03,-4.03
399.73,0.34,4.37,0.34,4.37,-4.37,-4.32,-3.78,-4.03,-4.03,-4.03
403.72,0.32,4.34,0.32,4.35,-4.35,-4.31,-3.78,-4.03,-4.03,-4.02
407.76,0.30,4.32,0.30,4.32,-4.33,-4.30,-3.78,-4.03,-4.02,-4.02
411.84,0.28,4.30,0.28,4.30,-4.30,-4.29,-3.79,-4.02,-4.02,-4.02
415.96,0.26,4.28,0.26,4.28,-4.28,-4.28,-3.79,-4.02,-4.02,-4.02
420.12,0.23,4.26,0.23,4.26,-4.26,-4.27,-3.80,-4.03,-4.03,-4.03
424.32,0.20,4.23,0.21,4.23,-4.23,-4.26,-3.80,-4.03,-4.03,-4.03
428.56,0.18,4.20,0.18,4.21,-4.21,-4.25,-3.81,-4.03,-4.03,-4.02
432.85,0.16,4.18,0.15,4.18,-4.19,-4.24,-3.82,-4.02,-4.03,-4.02
437.18,0.12,4.15,0.13,4.16,-4.16,-4.22,-3.83,-4.04,-4.03,-4.03
441.55,0.10,4.13,0.10,4.14,-4.13,-4.21,-3.84,-4.03,-4.03,-4.03
445.96,0.07,4.11,0.07,4.11,-4.10,-4.20,-3.84,-4.03,-4.03,-4.04
450.42,0.04,4.08,0.04,4.08,-4.08,-4.18,-3.85,-4.03,-4.04,-4.04
454.93,0.00,4.04,0.00,4.05,-4.05,-4.17,-3.86,-4.04,-4.04,-4.04
459.48,-0.03,4.01,-0.03,4.01,-4.01,-4.15,-3.86,-4.04,-4.04,-4.04
464.07,-0.06,3.97,-0.06,3.98,-3.98,-4.12,-3.86,-4.04,-4.04,-4.03
468.71,-0.09,3.94,-0.09,3.94,-3.95,-4.10,-3.86,-4.03,-4.04,-4.03
473.40,-0.12,3.91,-0.12,3.91,-3.91,-4.07,-3.86,-4.03,-4.03,-4.03
478.13,-0.16,3.87,-0.15,3.88,-3.88,-4.04,-3.85,-4.03,-4.03,-4.03
482.91,-0.19,3.84,-0.19,3.84,-3.84,-4.00,-3.84,-4.03,-4.03,-4.03
487.74,-0.23,3.80,-0.23,3.80,-3.80,-3.96,-3.83,-4.03,-4.03,-4.03
492.62,-0.27,3.76,-0.26,3.77,-3.77,-3.92,-3.82,-4.04,-4.03,-4.03
497.55,-0.30,3.73,-0.30,3.73,-3.73,-3.87,-3.80,-4.03,-4.03,-4.03
502.52,-0.34,3.69,-0.34,3.69,-3.69,-3.82,-3.78,-4.03,-4.03,-4.03
507.55,-0.38,3.64,-0.37,3.65,-3.65,-3.77,-3.76,-4.03,-4.02,-4.02
