frequency,raw,error,smoothed,error_smoothed,equalization,parametric_eq,fixed_band_eq,equalized_raw,equalized_smoothed,target
20.00,-1.91,-9.04,-1.89,-9.01,9.01,8.08,3.80,7.10,7.13,7.13
20.20,-1.86,-8.98,-1.85,-8.96,8.96,8.15,3.90,7.10,7.11,7.12
20.40,-1.82,-8.93,-1.81,-8.91,8.91,8.21,4.01,7.09,7.10,7.10
20.61,-1.77,-8.87,-1.77,-8.86,8.86,8.28,4.12,7.09,7.09,7.09
20.81,-1.73,-8.81,-1.74,-8.82,8.82,8.34,4.24,7.09,7.08,7.07
21.02,-1.70,-8.76,-1.71,-8.78,8.78,8.39,4.35,7.08,7.07,7.06
21.23,-1.66,-8.71,-1.68,-8.74,8.74,8.45,4.47,7.08,7.06,7.05
21.44,-1.63,-8.69,-1.66,-8.70,8.70,8.50,4.60,7.07,7.05,7.06
21.66,-1.61,-8.65,-1.63,-8.67,8.67,8.55,4.73,7.06,7.04,7.04
21.87,-1.58,-8.62,-1.61,-8.64,8.64,8.59,4.86,7.06,7.03,7.04
22.09,-1.57,-8.59,-1.59,-8.61,8.61,8.63,4.99,7.04,7.02,7.02
22.31,-1.55,-8.57,-1.58,-8.59,8.59,8.67,5.13,7.04,7.01,7.02
22.54,-1.54,-8.55,-1.57,-8.58,8.58,8.70,5.28,7.03,7.01,7.01
22.76,-1.54,-8.55,-1.57,-8.57,8.57,8.73,5.42,7.02,7.00,7.00
22.99,-1.55,-8.55,-1.56,-8.56,8.56,8.76,5.58,7.01,7.00,6.99
23.22,-1.57,-8.55,-1.56,-8.55,8.55,8.78,5.73,6.98,6.99,6.98
23.45,-1.58,-8.57,-1.55,-8.54,8.54,8.80,5.89,6.96,6.99,6.99
23.69,-1.58,-8.56,-1.55,-8.53,8.53,8.82,6.05,6.95,6.98,6.98
23.92,-1.56,-8.53,-1.54,-8.51,8.51,8.83,6.22,6.95,6.98,6.97
24.16,-1.55,-8.53,-1.53,-8.50,8.50,8.84,6.39,6.95,6.97,6.98
24.40,-1.53,-8.51,-1.51,-8.48,8.48,8.84,6.56,6.95,6.97,6.97
24.65,-1.50,-8.48,-1.49,-8.46,8.46,8.84,6.74,6.96,6.97,6.97
24.89,-1.47,-8.44,-1.47,-8.44,8.44,8.83,6.92,6.96,6.96,6.97
25.14,-1.44,-8.40,-1.45,-8.41,8.41,8.83,7.10,6.97,6.96,6.96
25.39,-1.41,-8.37,-1.42,-8.38,8.38,8.82,7.29,6.96,6.96,6.96
25.65,-1.38,-8.34,-1.39,-8.35,8.35,8.80,7.47,6.96,6.96,6.96
25.91,-1.35,-8.31,-1.36,-8.31,8.31,8.78,7.66,6.96,6.96,6.95
26.16,-1.32,-8.28,-1.33,-8.28,8.28,8.76,7.86,6.96,6.96,6.96
26.43,-1.29,-8.25,-1.30,-8.26,8.26,8.74,8.05,6.97,6.96,6.96
26.69,-1.27,-8.23,-1.28,-8.24,8.24,8.71,8.24,6.97,6.96,6.96
26.96,-1.25,-8.21,-1.26,-8.22,8.22,8.68,8.43,6.97,6.96,6.96
27.23,-1.23,-8.19,-1.25,-8.21,8.21,8.65,8.62,6.97,6.96,6.95
27.50,-1.22,-8.17,-1.24,-8.20,8.20,8.62,8.80,6.97,6.96,6.95
27.77,-1.21,-8.17,-1.23,-8.19,8.19,8.58,8.98,6.98,6.96,6.96
28.05,-1.21,-8.17,-1.22,-8.18,8.18,8.54,9.16,6.97,6.96,6.96
28.33,-1.22,-8.19,-1.22,-8.18,8.18,8.50,9.33,6.96,6.96,6.96
28.62,-1.23,-8.19,-1.22,-8.18,8.18,8.46,9.49,6.95,6.96,6.96
28.90,-1.23,-8.20,-1.22,-8.18,8.18,8.42,9.64,6.95,6.96,6.97
29.19,-1.23,-8.20,-1.22,-8.18,8.18,8.38,9.79,6.95,6.96,6.96
29.48,-1.23,-8.19,-1.23,-8.18,8.18,8.33,9.92,6.95,6.96,6.96
29.78,-1.23,-8.19,-1.23,-8.18,8.18,8.28,10.03,6.95,6.95,6.96
30.08,-1.23,-8.19,-1.23,-8.18,8.18,8.24,10.13,6.95,6.95,6.95
30.38,-1.23,-8.17,-1.23,-8.18,8.18,8.19,10.22,6.94,6.94,6.94
30.68,-1.23,-8.17,-1.23,-8.17,8.17,8.14,10.28,6.94,6.94,6.94
30.99,-1.23,-8.17,-1.23,-8.17,8.17,8.09,10.33,6.94,6.93,6.93
31.30,-1.23,-8.16,-1.23,-8.16,8.16,8.04,10.36,6.93,6.93,6.93
31.61,-1.23,-8.16,-1.23,-8.15,8.15,7.99,10.38,6.92,6.92,6.92
31.93,-1.23,-8.13,-1.23,-8.14,8.14,7.94,10.37,6.91,6.91,6.90
32.24,-1.23,-8.14,-1.23,-8.14,8.14,7.89,10.35,6.90,6.90,6.90
32.57,-1.23,-8.12,-1.23,-8.13,8.13,7.85,10.31,6.89,6.89,6.89
32.89,-1.23,-8.12,-1.23,-8.12,8.12,7.80,10.25,6.89,6.89,6.89
33.22,-1.23,-8.11,-1.23,-8.11,8.11,7.75,10.18,6.88,6.88,6.88
33.55,-1.23,-8.11,-1.23,-8.10,8.10,7.71,10.10,6.87,6.87,6.87
33.89,-1.23,-8.09,-1.23,-8.10,8.10,7.66,10.00,6.86,6.86,6.86
34.23,-1.23,-8.08,-1.23,-8.09,8.09,7.62,9.90,6.85,6.85,6.84
34.57,-1.23,-8.07,-1.23,-8.08,8.08,7.57,9.78,6.84,6.84,6.84
34.92,-1.23,-8.05,-1.23,-8.06,8.06,7.53,9.66,6.83,6.83,6.82
35.27,-1.23,-8.07,-1.23,-8.05,8.05,7.49,9.53,6.82,6.82,6.83
35.62,-1.23,-8.04,-1.23,-8.04,8.04,7.45,9.40,6.81,6.81,6.81
35.97,-1.23,-8.03,-1.23,-8.02,8.02,7.41,9.26,6.79,6.79,6.80
36.33,-1.23,-8.02,-1.23,-8.01,8.01,7.38,9.12,6.77,6.78,6.78
36.70,-1.23,-7.99,-1.23,-7.99,7.99,7.34,8.98,6.76,6.76,6.76
37.06,-1.23,-7.97,-1.23,-7.97,7.97,7.31,8.84,6.74,6.74,6.74
37.43,-1.23,-7.95,-1.23,-7.96,7.96,7.28,8.70,6.72,6.72,6.72
37.81,-1.23,-7.94,-1.24,-7.94,7.94,7.25,8.57,6.70,6.70,6.70
38.19,-1.23,-7.91,-1.24,-7.92,7.92,7.22,8.43,6.69,6.68,6.67
38.57,-1.23,-7.89,-1.24,-7.90,7.90,7.20,8.30,6.67,6.66,6.65
38.95,-1.23,-7.87,-1.25,-7.88,7.88,7.17,8.17,6.65,6.63,6.64
39.34,-1.24,-7.85,-1.25,-7.86,7.86,7.15,8.05,6.61,6.61,6.61
39.74,-1.24,-7.82,-1.25,-7.83,7.83,7.13,7.92,6.59,6.58,6.58
40.14,-1.25,-7.81,-1.25,-7.81,7.81,7.11,7.81,6.55,6.56,6.56
40.54,-1.25,-7.79,-1.25,-7.78,7.78,7.10,7.70,6.53,6.53,6.53
40.94,-1.25,-7.76,-1.24,-7.75,7.75,7.08,7.59,6.50,6.51,6.50
41.35,-1.25,-7.73,-1.23,-7.71,7.71,7.07,7.49,6.46,6.48,6.48
41.76,-1.23,-7.68,-1.22,-7.68,7.68,7.06,7.39,6.44,6.46,6.45
42.18,-1.21,-7.65,-1.20,-7.64,7.64,7.05,7.30,6.42,6.43,6.44
42.60,-1.19,-7.60,-1.18,-7.59,7.59,7.04,7.21,6.40,6.40,6.40
43.03,-1.16,-7.54,-1.16,-7.54,7.54,7.04,7.13,6.38,6.38,6.38
43.46,-1.14,-7.49,-1.13,-7.48,7.48,7.03,7.05,6.34,6.35,6.35
43.90,-1.11,-7.44,-1.10,-7.42,7.42,7.03,6.98,6.31,6.32,6.32
44.33,-1.08,-7.37,-1.07,-7.36,7.36,7.03,6.92,6.28,6.29,6.29
44.78,-1.04,-7.30,-1.04,-7.30,7.30,7.03,6.86,6.25,6.26,6.26
45.23,-1.01,-7.25,-1.01,-7.23,7.23,7.03,6.80,6.22,6.22,6.23
45.68,-0.98,-7.17,-0.98,-7.17,7.17,7.03,6.75,6.18,6.19,6.19
46.13,-0.95,-7.10,-0.96,-7.10,7.10,7.03,6.71,6.15,6.15,6.15
46.60,-0.92,-7.04,-0.94,-7.05,7.05,7.03,6.67,6.12,6.11,6.11
47.06,-0.89,-6.97,-0.92,-6.99,6.99,7.04,6.63,6.10,6.07,6.07
47.53,-0.88,-6.92,-0.92,-6.94,6.94,7.04,6.60,6.06,6.02,6.03
48.01,-0.88,-6.86,-0.92,-6.89,6.89,7.04,6.58,6.01,5.98,5.98
48.49,-0.89,-6.83,-0.92,-6.85,6.85,7.04,6.55,5.96,5.93,5.93
48.97,-0.91,-6.80,-0.93,-6.82,6.82,7.04,6.54,5.90,5.89,5.88
49.46,-0.94,-6.78,-0.94,-6.78,6.78,7.04,6.52,5.84,5.84,5.84
49.96,-0.97,-6.75,-0.96,-6.76,6.76,7.04,6.51,5.78,5.80,5.78
50.46,-1.00,-6.75,-0.99,-6.73,6.73,7.04,6.51,5.73,5.75,5.74
50.96,-1.03,-6.73,-1.01,-6.71,6.71,7.03,6.50,5.68,5.70,5.70
51.47,-1.06,-6.72,-1.04,-6.70,6.70,7.02,6.50,5.63,5.65,5.65
51.99,-1.08,-6.68,-1.07,-6.68,6.68,7.01,6.50,5.60,5.61,5.60
52.51,-1.11,-6.68,-1.11,-6.67,6.67,6.99,6.51,5.56,5.56,5.56
53.03,-1.13,-6.66,-1.14,-6.66,6.66,6.98,6.51,5.52,5.51,5.52
53.56,-1.16,-6.64,-1.18,-6.64,6.64,6.95,6.52,5.48,5.47,5.48
54.10,-1.20,-6.62,-1.21,-6.63,6.63,6.93,6.52,5.43,5.42,5.42
54.64,-1.23,-6.61,-1.25,-6.62,6.62,6.90,6.53,5.39,5.38,5.38
55.18,-1.27,-6.60,-1.28,-6.61,6.61,6.86,6.53,5.34,5.33,5.32
55.74,-1.30,-6.57,-1.31,-6.60,6.60,6.83,6.54,5.30,5.29,5.27
56.29,-1.34,-6.58,-1.35,-6.59,6.59,6.78,6.54,5.24,5.24,5.24
56.86,-1.38,-6.58,-1.38,-6.57,6.57,6.73,6.54,5.19,5.20,5.19
57.42,-1.41,-6.55,-1.40,-6.55,6.55,6.68,6.54,5.14,5.15,5.14
58.00,-1.43,-6.52,-1.43,-6.53,6.53,6.63,6.54,5.09,5.10,5.09
58.58,-1.45,-6.51,-1.45,-6.50,6.50,6.56,6.53,5.04,5.05,5.05
59.16,-1.47,-6.49,-1.46,-6.46,6.46,6.50,6.52,4.99,4.99,5.02
59.76,-1.48,-6.45,-1.47,-6.41,6.41,6.43,6.50,4.93,4.94,4.97
60.35,-1.49,-6.40,-1.47,-6.36,6.36,6.35,6.48,4.87,4.89,4.90
60.96,-1.48,-6.33,-1.47,-6.30,6.30,6.28,6.45,4.81,4.83,4.84
61.57,-1.47,-6.24,-1.46,-6.23,6.23,6.19,6.42,4.75,4.77,4.77
62.18,-1.46,-6.17,-1.44,-6.15,6.15,6.11,6.38,4.69,4.71,4.70
62.80,-1.43,-6.07,-1.42,-6.07,6.07,6.02,6.33,4.63,4.65,4.64
63.43,-1.40,-5.97,-1.39,-5.98,5.98,5.93,6.28,4.58,4.59,4.57
64.07,-1.37,-5.89,-1.37,-5.89,5.89,5.84,6.23,4.52,4.52,4.51
64.71,-1.33,-5.79,-1.34,-5.80,5.80,5.74,6.17,4.47,4.46,4.45
65.35,-1.29,-5.69,-1.32,-5.71,5.71,5.64,6.10,4.42,4.40,4.39
66.01,-1.27,-5.60,-1.29,-5.63,5.63,5.54,6.03,4.35,4.33,4.33
66.67,-1.24,-5.52,-1.27,-5.54,5.54,5.44,5.95,4.30,4.27,4.28
67.33,-1.23,-5.44,-1.26,-5.46,5.46,5.34,5.87,4.23,4.20,4.20
68.01,-1.22,-5.37,-1.24,-5.38,5.38,5.23,5.78,4.16,4.14,4.15
68.69,-1.21,-5.29,-1.23,-5.31,5.31,5.13,5.69,4.09,4.08,4.08
69.37,-1.21,-5.23,-1.22,-5.23,5.23,5.03,5.60,4.02,4.01,4.02
70.07,-1.22,-5.17,-1.22,-5.16,5.16,4.92,5.50,3.94,3.95,3.95
70.77,-1.23,-5.11,-1.22,-5.10,5.10,4.82,5.41,3.86,3.88,3.88
71.48,-1.23,-5.05,-1.22,-5.03,5.03,4.72,5.31,3.80,3.81,3.82
72.19,-1.23,-4.98,-1.22,-4.97,4.97,4.61,5.20,3.73,3.74,3.74
72.91,-1.23,-4.90,-1.23,-4.90,4.90,4.51,5.10,3.67,3.68,3.67
73.64,-1.23,-4.84,-1.23,-4.84,4.84,4.41,5.00,3.61,3.61,3.60
74.38,-1.23,-4.77,-1.23,-4.78,4.78,4.31,4.89,3.54,3.54,3.54
75.12,-1.23,-4.71,-1.23,-4.71,4.71,4.21,4.79,3.48,3.48,3.48
75.87,-1.23,-4.65,-1.23,-4.65,4.65,4.11,4.68,3.42,3.42,3.42
76.63,-1.23,-4.58,-1.23,-4.59,4.59,4.01,4.58,3.35,3.35,3.34
77.40,-1.23,-4.53,-1.23,-4.52,4.52,3.92,4.48,3.29,3.29,3.29
78.17,-1.23,-4.45,-1.23,-4.46,4.46,3.82,4.38,3.23,3.23,3.22
78.95,-1.23,-4.41,-1.23,-4.40,4.40,3.73,4.28,3.17,3.17,3.17
79.74,-1.23,-4.34,-1.23,-4.34,4.34,3.64,4.18,3.11,3.11,3.11
80.54,-1.23,-4.28,-1.23,-4.28,4.28,3.55,4.08,3.04,3.04,3.05
81.35,-1.23,-4.21,-1.23,-4.22,4.22,3.46,3.99,2.98,2.98,2.98
82.16,-1.23,-4.16,-1.23,-4.15,4.15,3.37,3.90,2.92,2.92,2.93
82.98,-1.23,-4.09,-1.23,-4.09,4.09,3.29,3.81,2.86,2.86,2.86
83.81,-1.23,-4.03,-1.23,-4.03,4.03,3.21,3.72,2.79,2.79,2.80
84.65,-1.23,-3.96,-1.23,-3.96,3.96,3.13,3.64,2.73,2.73,2.73
85.50,-1.23,-3.89,-1.23,-3.90,3.90,3.05,3.55,2.66,2.66,2.66
86.35,-1.23,-3.83,-1.23,-3.83,3.83,2.97,3.47,2.60,2.60,2.60
87.22,-1.23,-3.76,-1.23,-3.76,3.76,2.89,3.39,2.53,2.53,2.53
88.09,-1.23,-3.70,-1.23,-3.70,3.70,2.82,3.32,2.46,2.46,2.46
88.97,-1.23,-3.63,-1.23,-3.63,3.63,2.74,3.24,2.40,2.40,2.40
89.86,-1.23,-3.56,-1.23,-3.56,3.56,2.67,3.17,2.33,2.33,2.33
90.76,-1.23,-3.49,-1.23,-3.49,3.49,2.60,3.11,2.26,2.26,2.26
91.66,-1.23,-3.41,-1.23,-3.42,3.42,2.53,3.04,2.18,2.18,2.18
92.58,-1.23,-3.35,-1.23,-3.34,3.34,2.46,2.98,2.11,2.11,2.12
93.51,-1.23,-3.28,-1.23,-3.27,3.27,2.40,2.91,2.03,2.04,2.05
94.44,-1.23,-3.21,-1.22,-3.19,3.19,2.33,2.85,1.96,1.96,1.97
95.39,-1.23,-3.12,-1.22,-3.11,3.11,2.27,2.80,1.88,1.89,1.89
96.34,-1.23,-3.05,-1.22,-3.04,3.04,2.21,2.74,1.80,1.82,1.82
97.30,-1.23,-2.98,-1.22,-2.96,2.96,2.15,2.69,1.73,1.74,1.74
98.28,-1.22,-2.88,-1.22,-2.89,2.89,2.09,2.64,1.67,1.67,1.66
99.26,-1.21,-2.80,-1.22,-2.82,2.82,2.03,2.59,1.61,1.60,1.59
100.25,-1.21,-2.73,-1.23,-2.75,2.75,1.97,2.54,1.54,1.52,1.51
101.25,-1.22,-2.67,-1.24,-2.69,2.69,1.92,2.49,1.47,1.45,1.45
102.27,-1.23,-2.61,-1.25,-2.63,2.63,1.86,2.45,1.40,1.38,1.38
103.29,-1.25,-2.56,-1.27,-2.58,2.58,1.81,2.41,1.32,1.31,1.31
104.32,-1.27,-2.51,-1.28,-2.53,2.53,1.75,2.36,1.25,1.24,1.24
105.37,-1.30,-2.48,-1.31,-2.48,2.48,1.70,2.32,1.18,1.17,1.18
106.42,-1.32,-2.43,-1.33,-2.44,2.44,1.65,2.28,1.11,1.10,1.11
107.48,-1.35,-2.39,-1.36,-2.40,2.40,1.60,2.24,1.04,1.03,1.03
108.56,-1.39,-2.36,-1.39,-2.35,2.35,1.55,2.20,0.96,0.96,0.97
109.64,-1.42,-2.33,-1.42,-2.32,2.32,1.51,2.17,0.89,0.89,0.90
110.74,-1.45,-2.28,-1.45,-2.27,2.27,1.46,2.13,0.82,0.82,0.83
111.85,-1.48,-2.24,-1.48,-2.23,2.23,1.41,2.09,0.75,0.75,0.75
112.97,-1.51,-2.20,-1.50,-2.18,2.18,1.37,2.06,0.67,0.68,0.69
114.10,-1.53,-2.15,-1.52,-2.13,2.13,1.33,2.02,0.60,0.61,0.62
115.24,-1.55,-2.09,-1.54,-2.08,2.08,1.28,1.98,0.53,0.54,0.53
116.39,-1.57,-2.03,-1.55,-2.02,2.02,1.24,1.94,0.45,0.47,0.46
117.55,-1.58,-1.97,-1.56,-1.96,1.96,1.20,1.91,0.38,0.40,0.39
118.73,-1.58,-1.90,-1.57,-1.90,1.90,1.16,1.87,0.32,0.33,0.31
119.92,-1.58,-1.84,-1.58,-1.84,1.84,1.11,1.83,0.25,0.26,0.25
121.12,-1.57,-1.77,-1.58,-1.77,1.77,1.07,1.79,0.19,0.19,0.19
122.33,-1.56,-1.68,-1.58,-1.70,1.70,1.03,1.75,0.14,0.12,0.12
123.55,-1.56,-1.63,-1.58,-1.63,1.63,1.00,1.71,0.07,0.05,0.06
124.79,-1.56,-1.56,-1.57,-1.56,1.56,0.96,1.66,-0.00,-0.01,-0.01
126.03,-1.56,-1.49,-1.57,-1.49,1.49,0.92,1.62,-0.08,-0.08,-0.07
127.29,-1.56,-1.42,-1.57,-1.42,1.42,0.88,1.58,-0.14,-0.15,-0.14
128.57,-1.56,-1.35,-1.56,-1.35,1.35,0.84,1.53,-0.21,-0.22,-0.22
129.85,-1.56,-1.28,-1.56,-1.28,1.28,0.81,1.48,-0.28,-0.28,-0.28
131.15,-1.56,-1.21,-1.56,-1.21,1.21,0.77,1.43,-0.35,-0.35,-0.36
132.46,-1.56,-1.14,-1.56,-1.14,1.14,0.73,1.38,-0.42,-0.42,-0.42
133.79,-1.56,-1.07,-1.56,-1.08,1.08,0.70,1.33,-0.49,-0.49,-0.49
135.12,-1.56,-1.01,-1.56,-1.01,1.01,0.66,1.28,-0.55,-0.55,-0.55
136.48,-1.56,-0.95,-1.56,-0.95,0.95,0.63,1.23,-0.62,-0.62,-0.61
137.84,-1.56,-0.88,-1.56,-0.88,0.88,0.59,1.18,-0.68,-0.68,-0.68
139.22,-1.56,-0.81,-1.56,-0.82,0.82,0.56,1.12,-0.74,-0.74,-0.75
140.61,-1.56,-0.76,-1.56,-0.76,0.76,0.53,1.07,-0.81,-0.81,-0.81
142.02,-1.56,-0.69,-1.56,-0.70,0.70,0.49,1.01,-0.87,-0.87,-0.87
143.44,-1.56,-0.64,-1.56,-0.64,0.64,0.46,0.95,-0.92,-0.92,-0.93
144.87,-1.56,-0.58,-1.56,-0.58,0.58,0.42,0.90,-0.98,-0.98,-0.98
146.32,-1.56,-0.52,-1.56,-0.53,0.53,0.39,0.84,-1.04,-1.04,-1.04
147.78,-1.56,-0.47,-1.56,-0.47,0.47,0.36,0.78,-1.09,-1.09,-1.09
149.26,-1.56,-0.41,-1.56,-0.41,0.41,0.33,0.72,-1.15,-1.15,-1.15
150.75,-1.56,-0.35,-1.56,-0.36,0.36,0.29,0.66,-1.20,-1.20,-1.21
152.26,-1.56,-0.31,-1.56,-0.30,0.30,0.26,0.60,-1.26,-1.26,-1.26
153.78,-1.56,-0.25,-1.56,-0.25,0.25,0.23,0.54,-1.31,-1.31,-1.31
155.32,-1.56,-0.20,-1.56,-0.20,0.20,0.19,0.48,-1.37,-1.37,-1.36
156.88,-1.56,-0.15,-1.56,-0.14,0.14,0.16,0.42,-1.42,-1.42,-1.42
158.44,-1.56,-0.08,-1.57,-0.09,0.09,0.13,0.36,-1.48,-1.48,-1.48
160.03,-1.56,-0.03,-1.56,-0.03,0.03,0.09,0.30,-1.53,-1.53,-1.53
161.63,-1.56,0.02,-1.56,0.03,-0.03,0.06,0.23,-1.59,-1.59,-1.59
163.24,-1.56,0.08,-1.56,0.08,-0.08,0.03,0.17,-1.65,-1.65,-1.65
164.88,-1.56,0.14,-1.56,0.14,-0.14,-0.01,0.11,-1.71,-1.70,-1.70
166.53,-1.56,0.20,-1.56,0.20,-0.20,-0.04,0.04,-1.77,-1.76,-1.77
168.19,-1.56,0.25,-1.55,0.26,-0.26,-0.07,-0.02,-1.83,-1.82,-1.81
169.87,-1.56,0.31,-1.55,0.32,-0.32,-0.11,-0.08,-1.89,-1.87,-1.87
171.57,-1.56,0.37,-1.55,0.38,-0.38,-0.14,-0.15,-1.95,-1.93,-1.93
173.29,-1.55,0.43,-1.55,0.44,-0.44,-0.18,-0.21,-1.99,-1.99,-1.98
175.02,-1.54,0.50,-1.55,0.50,-0.50,-0.21,-0.28,-2.04,-2.04,-2.04
176.77,-1.53,0.57,-1.55,0.55,-0.55,-0.24,-0.34,-2.08,-2.10,-2.10
178.54,-1.54,0.61,-1.56,0.60,-0.60,-0.28,-0.41,-2.14,-2.16,-2.16
180.32,-1.55,0.67,-1.57,0.64,-0.64,-0.32,-0.47,-2.20,-2.21,-2.22
182.13,-1.56,0.70,-1.58,0.69,-0.69,-0.35,-0.54,-2.25,-2.27,-2.26
183.95,-1.58,0.73,-1.60,0.73,-0.73,-0.39,-0.61,-2.31,-2.32,-2.32
185.79,-1.60,0.77,-1.61,0.76,-0.76,-0.42,-0.67,-2.36,-2.37,-2.38
187.65,-1.63,0.80,-1.64,0.79,-0.79,-0.46,-0.74,-2.42,-2.43,-2.43
189.52,-1.66,0.81,-1.66,0.82,-0.82,-0.50,-0.81,-2.48,-2.48,-2.48
191.42,-1.69,0.83,-1.69,0.84,-0.84,-0.54,-0.87,-2.53,-2.53,-2.53
193.33,-1.72,0.85,-1.72,0.85,-0.85,-0.57,-0.94,-2.58,-2.58,-2.57
195.27,-1.75,0.87,-1.76,0.87,-0.87,-0.61,-1.01,-2.62,-2.62,-2.63
197.22,-1.78,0.90,-1.79,0.88,-0.88,-0.65,-1.08,-2.66,-2.67,-2.68
199.19,-1.81,0.90,-1.82,0.90,-0.90,-0.69,-1.15,-2.71,-2.71,-2.72
201.18,-1.84,0.93,-1.84,0.91,-0.91,-0.73,-1.21,-2.76,-2.76,-2.77
203.19,-1.86,0.94,-1.86,0.93,-0.93,-0.77,-1.28,-2.80,-2.80,-2.80
205.23,-1.89,0.94,-1.88,0.96,-0.96,-0.81,-1.35,-2.85,-2.84,-2.83
207.28,-1.91,0.96,-1.90,0.98,-0.98,-0.86,-1.42,-2.89,-2.88,-2.87
209.35,-1.93,0.98,-1.91,1.01,-1.01,-0.90,-1.48,-2.94,-2.91,-2.91
211.44,-1.93,1.02,-1.91,1.04,-1.04,-0.94,-1.55,-2.97,-2.95,-2.95
213.56,-1.92,1.05,-1.91,1.07,-1.07,-0.99,-1.61,-3.00,-2.98,-2.98
215.69,-1.90,1.11,-1.90,1.12,-1.12,-1.03,-1.68,-3.02,-3.02,-3.01
217.85,-1.87,1.17,-1.89,1.16,-1.16,-1.08,-1.74,-3.03,-3.05,-3.05
220.03,-1.85,1.23,-1.87,1.21,-1.21,-1.12,-1.80,-3.06,-3.08,-3.08
222.23,-1.84,1.27,-1.85,1.26,-1.26,-1.17,-1.86,-3.11,-3.11,-3.12
224.45,-1.82,1.32,-1.82,1.32,-1.32,-1.21,-1.91,-3.14,-3.14,-3.14
226.70,-1.79,1.38,-1.78,1.38,-1.38,-1.26,-1.96,-3.17,-3.16,-3.17
228.96,-1.75,1.43,-1.75,1.44,-1.44,-1.31,-2.02,-3.20,-3.19,-3.18
231.25,-1.71,1.50,-1.71,1.51,-1.51,-1.36,-2.06,-3.22,-3.21,-3.21
233.57,-1.66,1.57,-1.66,1.57,-1.57,-1.41,-2.11,-3.23,-3.23,-3.23
235.90,-1.61,1.64,-1.62,1.63,-1.63,-1.45,-2.15,-3.25,-3.25,-3.25
238.26,-1.57,1.71,-1.57,1.69,-1.69,-1.50,-2.19,-3.27,-3.27,-3.28
240.64,-1.52,1.76,-1.53,1.76,-1.76,-1.55,-2.22,-3.28,-3.28,-3.28
243.05,-1.48,1.81,-1.48,1.82,-1.82,-1.60,-2.25,-3.30,-3.30,-3.30
245.48,-1.43,1.88,-1.43,1.88,-1.88,-1.65,-2.28,-3.31,-3.31,-3.31
247.93,-1.37,1.96,-1.38,1.94,-1.94,-1.70,-2.30,-3.32,-3.32,-3.33
250.41,-1.32,2.00,-1.33,2.00,-2.00,-1.76,-2.32,-3.33,-3.33,-3.33
252.92,-1.27,2.06,-1.28,2.06,-2.06,-1.81,-2.34,-3.33,-3.34,-3.33
255.45,-1.23,2.11,-1.23,2.12,-2.12,-1.86,-2.35,-3.35,-3.34,-3.35
258.00,-1.19,2.16,-1.18,2.17,-2.17,-1.91,-2.36,-3.36,-3.35,-3.35
260.58,-1.14,2.21,-1.14,2.22,-2.22,-1.96,-2.36,-3.36,-3.36,-3.35
263.19,-1.09,2.26,-1.10,2.26,-2.26,-2.01,-2.36,-3.36,-3.36,-3.36
265.82,-1.05,2.32,-1.06,2.31,-2.31,-2.05,-2.36,-3.36,-3.37,-3.37
268.48,-1.01,2.36,-1.03,2.35,-2.35,-2.10,-2.35,-3.36,-3.38,-3.37
271.16,-0.98,2.39,-0.99,2.39,-2.39,-2.15,-2.35,-3.37,-3.38,-3.37
273.87,-0.96,2.42,-0.97,2.42,-2.42,-2.20,-2.33,-3.38,-3.38,-3.38
276.61,-0.94,2.44,-0.95,2.44,-2.44,-2.24,-2.32,-3.38,-3.39,-3.39
279.38,-0.93,2.47,-0.93,2.46,-2.46,-2.28,-2.30,-3.40,-3.39,-3.41
282.17,-0.91,2.49,-0.92,2.48,-2.48,-2.33,-2.28,-3.39,-3.40,-3.41
284.99,-0.89,2.50,-0.91,2.49,-2.49,-2.37,-2.26,-3.38,-3.40,-3.40
287.84,-0.89,2.50,-0.90,2.50,-2.50,-2.41,-2.24,-3.39,-3.40,-3.40
290.72,-0.89,2.51,-0.90,2.50,-2.50,-2.44,-2.22,-3.39,-3.40,-3.40
293.63,-0.89,2.50,-0.90,2.50,-2.50,-2.48,-2.20,-3.39,-3.40,-3.39
296.57,-0.90,2.49,-0.90,2.50,-2.50,-2.51,-2.17,-3.40,-3.39,-3.39
299.53,-0.91,2.48,-0.90,2.49,-2.49,-2.54,-2.15,-3.40,-3.39,-3.39
302.53,-0.91,2.46,-0.90,2.48,-2.48,-2.57,-2.12,-3.40,-3.39,-3.38
305.55,-0.91,2.47,-0.90,2.48,-2.48,-2.59,-2.10,-3.39,-3.38,-3.39
308.61,-0.91,2.46,-0.91,2.47,-2.47,-2.61,-2.08,-3.38,-3.38,-3.37
311.69,-0.91,2.46,-0.91,2.46,-2.46,-2.63,-2.05,-3.37,-3.37,-3.37
314.81,-0.91,2.45,-0.91,2.45,-2.45,-2.65,-2.03,-3.37,-3.36,-3.37
317.96,-0.91,2.45,-0.91,2.45,-2.45,-2.66,-2.01,-3.36,-3.36,-3.36
321.14,-0.91,2.44,-0.91,2.44,-2.44,-2.68,-1.98,-3.35,-3.35,-3.35
324.35,-0.91,2.44,-0.91,2.43,-2.43,-2.68,-1.96,-3.35,-3.35,-3.36
327.59,-0.91,2.42,-0.91,2.43,-2.43,-2.69,-1.94,-3.34,-3.34,-3.33
330.87,-0.91,2.42,-0.91,2.42,-2.42,-2.69,-1.92,-3.34,-3.34,-3.34
334.18,-0.91,2.42,-0.91,2.42,-2.42,-2.69,-1.91,-3.33,-3.33,-3.33
337.52,-0.91,2.41,-0.91,2.41,-2.41,-2.69,-1.89,-3.32,-3.32,-3.33
340.90,-0.91,2.40,-0.91,2.40,-2.40,-2.68,-1.88,-3.32,-3.32,-3.31
344.30,-0.91,2.39,-0.91,2.40,-2.40,-2.67,-1.86,-3.31,-3.31,-3.31
347.75,-0.91,2.39,-0.91,2.39,-2.39,-2.66,-1.85,-3.30,-3.30,-3.30
351.23,-0.91,2.39,-0.91,2.38,-2.38,-2.65,-1.84,-3.30,-3.30,-3.31
354.74,-0.91,2.37,-0.91,2.38,-2.38,-2.63,-1.83,-3.29,-3.29,-3.28
358.28,-0.91,2.37,-0.91,2.37,-2.37,-2.61,-1.82,-3.28,-3.28,-3.28
361.87,-0.91,2.37,-0.91,2.36,-2.36,-2.59,-1.82,-3.28,-3.28,-3.28
365.49,-0.91,2.36,-0.91,2.36,-2.36,-2.57,-1.81,-3.27,-3.27,-3.27
369.14,-0.91,2.34,-0.91,2.35,-2.35,-2.55,-1.81,-3.26,-3.26,-3.26
372.83,-0.91,2.34,-0.91,2.34,-2.34,-2.53,-1.81,-3.25,-3.25,-3.25
376.56,-0.91,2.34,-0.91,2.33,-2.33,-2.50,-1.81,-3.25,-3.25,-3.25
380.33,-0.91,2.33,-0.91,2.33,-2.33,-2.47,-1.81,-3.24,-3.24,-3.25
384.13,-0.91,2.32,-0.91,2.32,-2.32,-2.45,-1.81,-3.23,-3.23,-3.23
387.97,-0.91,2.31,-0.91,2.31,-2.31,-2.42,-1.81,-3.22,-3.22,-3.22
391.85,-0.91,2.30,-0.91,2.30,-2.30,-2.39,-1.82,-3.21,-3.21,-3.21
395.77,-0.91,2.29,-0.91,2.29,-2.29,-2.36,-1.82,-3.20,-3.20,-3.21
399.73,-0.91,2.29,-0.91,2.28,-2.28,-2.33,-1.83,-3.19,-3.19,-3.20
403.72,-0.91,2.26,-0.91,2.27,-2.27,-2.30,-1.84,-3.18,-3.18,-3.17
407.76,-0.91,2.26,-0.91,2.26,-2.26,-2.27,-1.85,-3.18,-3.18,-3.18
411.84,-0.91,2.25,-0.91,2.25,-2.25,-2.24,-1.86,-3.17,-3.17,-3.17
415.96,-0.91,2.24,-0.91,2.25,-2.25,-2.22,-1.87,-3.16,-3.16,-3.15
420.12,-0.91,2.24,-0.91,2.24,-2.24,-2.19,-1.88,-3.15,-3.15,-3.15
424.32,-0.91,2.23,-0.91,2.23,-2.23,-2.16,-1.89,-3.14,-3.14,-3.14
428.56,-0.91,2.21,-0.91,2.22,-2.22,-2.13,-1.91,-3.13,-3.13,-3.13
432.85,-0.91,2.21,-0.91,2.21,-2.21,-2.10,-1.92,-3.12,-3.12,-3.12
437.18,-0.91,2.21,-0.91,2.20,-2.20,-2.08,-1.93,-3.12,-3.12,-3.12
441.55,-0.91,2.20,-0.91,2.19,-2.19,-2.05,-1.95,-3.11,-3.11,-3.11
445.96,-0.91,2.19,-0.91,2.19,-2.19,-2.02,-1.96,-3.10,-3.10,-3.10
450.42,-0.91,2.18,-0.91,2.18,-2.18,-2.00,-1.97,-3.09,-3.09,-3.10
454.93,-0.91,2.17,-0.91,2.17,-2.17,-1.98,-1.99,-3.08,-3.08,-3.09
459.48,-0.91,2.17,-0.91,2.16,-2.16,-1.95,-2.00,-3.07,-3.07,-3.08
464.07,-0.91,2.15,-0.91,2.15,-2.15,-1.93,-2.01,-3.07,-3.07,-3.06
468.71,-0.91,2.14,-0.91,2.14,-2.14,-1.91,-2.02,-3.06,-3.06,-3.05
473.40,-0.91,2.13,-0.91,2.13,-2.13,-1.89,-2.03,-3.05,-3.05,-3.04
