frequency,raw,error,smoothed,error_smoothed,equalization,parametric_eq,fixed_band_eq,equalized_raw,equalized_smoothed,target
20.00,-4.03,-8.36,-3.79,-8.15,8.15,7.44,2.53,4.11,4.35,4.32
20.20,-3.74,-8.12,-3.62,-8.01,8.01,7.44,2.60,4.27,4.39,4.37
20.40,-3.45,-7.88,-3.46,-7.89,7.89,7.44,2.67,4.44,4.43,4.42
20.61,-3.18,-7.63,-3.31,-7.77,7.77,7.43,2.75,4.59,4.46,4.45
20.81,-2.86,-7.36,-3.17,-7.66,7.66,7.42,2.83,4.80,4.49,4.50
21.02,-2.61,-7.16,-3.04,-7.55,7.55,7.40,2.91,4.94,4.51,4.54
21.23,-2.71,-7.28,-2.92,-7.46,7.46,7.38,3.00,4.74,4.54,4.56
21.44,-2.82,-7.40,-2.80,-7.37,7.37,7.36,3.08,4.55,4.56,4.58
21.66,-2.90,-7.50,-2.70,-7.28,7.28,7.33,3.17,4.38,4.58,4.60
21.87,-3.00,-7.61,-2.61,-7.21,7.21,7.29,3.27,4.20,4.60,4.61
22.09,-2.95,-7.58,-2.52,-7.14,7.14,7.26,3.36,4.19,4.62,4.63
22.31,-2.68,-7.32,-2.45,-7.08,7.08,7.22,3.46,4.40,4.63,4.64
22.54,-2.42,-7.06,-2.42,-7.05,7.05,7.17,3.56,4.63,4.63,4.64
22.76,-2.15,-6.79,-2.39,-7.03,7.03,7.12,3.66,4.88,4.64,4.64
22.99,-1.89,-6.51,-2.37,-7.01,7.01,7.07,3.77,5.12,4.64,4.63
23.22,-1.99,-6.62,-2.34,-6.98,6.98,7.02,3.87,4.99,4.64,4.63
23.45,-2.13,-6.75,-2.30,-6.94,6.94,6.96,3.98,4.82,4.64,4.63
23.69,-2.24,-6.88,-2.25,-6.89,6.89,6.90,4.09,4.65,4.64,4.63
23.92,-2.37,-7.01,-2.20,-6.84,6.84,6.84,4.21,4.46,4.64,4.63
24.16,-2.36,-7.01,-2.15,-6.80,6.80,6.77,4.33,4.43,4.64,4.64
24.40,-2.28,-6.93,-2.12,-6.76,6.76,6.70,4.44,4.48,4.64,4.65
24.65,-2.21,-6.85,-2.10,-6.74,6.74,6.63,4.56,4.53,4.64,4.64
24.89,-2.12,-6.76,-2.08,-6.72,6.72,6.56,4.69,4.60,4.64,4.64
25.14,-2.04,-6.68,-2.05,-6.69,6.69,6.48,4.81,4.64,4.64,4.64
25.39,-1.96,-6.61,-1.98,-6.62,6.62,6.41,4.93,4.66,4.64,4.65
25.65,-1.88,-6.52,-1.88,-6.52,6.52,6.33,5.06,4.65,4.64,4.65
25.91,-1.80,-6.43,-1.74,-6.39,6.39,6.25,5.18,4.59,4.64,4.64
26.16,-1.66,-6.30,-1.59,-6.23,6.23,6.17,5.30,4.57,4.64,4.63
26.43,-1.52,-6.15,-1.44,-6.08,6.08,6.09,5.43,4.56,4.64,4.63
26.69,-1.36,-6.00,-1.29,-5.92,5.92,6.00,5.55,4.56,4.64,4.63
26.96,-1.21,-5.85,-1.15,-5.78,5.78,5.92,5.67,4.58,4.63,4.64
27.23,-1.04,-5.68,-1.04,-5.67,5.67,5.83,5.78,4.63,4.63,4.64
27.50,-0.86,-5.49,-0.94,-5.57,5.57,5.75,5.90,4.72,4.63,4.64
27.77,-0.67,-5.30,-0.86,-5.49,5.49,5.66,6.00,4.82,4.63,4.63
28.05,-0.52,-5.15,-0.79,-5.41,5.41,5.58,6.11,4.89,4.63,4.62
28.33,-0.53,-5.15,-0.73,-5.35,5.35,5.49,6.20,4.82,4.62,4.61
28.62,-0.53,-5.15,-0.67,-5.29,5.29,5.40,6.29,4.76,4.62,4.61
28.90,-0.54,-5.16,-0.61,-5.24,5.24,5.31,6.38,4.69,4.62,4.62
29.19,-0.58,-5.19,-0.55,-5.17,5.17,5.23,6.45,4.59,4.62,4.61
29.48,-0.66,-5.28,-0.49,-5.11,5.11,5.14,6.51,4.45,4.62,4.63
29.78,-0.71,-5.33,-0.44,-5.06,5.06,5.05,6.57,4.34,4.61,4.61
30.08,-0.72,-5.35,-0.41,-5.02,5.02,4.96,6.61,4.30,4.61,4.62
30.38,-0.56,-5.17,-0.39,-5.00,5.00,4.88,6.64,4.44,4.61,4.61
30.68,-0.39,-5.00,-0.37,-4.97,4.97,4.79,6.66,4.58,4.61,4.61
30.99,-0.24,-4.84,-0.34,-4.94,4.94,4.70,6.67,4.71,4.61,4.61
31.30,-0.09,-4.69,-0.29,-4.89,4.89,4.61,6.66,4.81,4.60,4.60
31.61,0.06,-4.54,-0.20,-4.80,4.80,4.53,6.64,4.86,4.60,4.60
31.93,0.21,-4.38,-0.07,-4.67,4.67,4.44,6.61,4.88,4.60,4.60
32.24,0.15,-4.43,0.08,-4.51,4.51,4.36,6.57,4.67,4.59,4.59
32.57,0.03,-4.57,0.21,-4.38,4.38,4.27,6.51,4.41,4.59,4.59
32.89,-0.11,-4.70,0.31,-4.27,4.27,4.19,6.44,4.16,4.58,4.59
33.22,0.03,-4.55,0.40,-4.18,4.18,4.11,6.37,4.20,4.58,4.58
33.55,0.30,-4.27,0.49,-4.08,4.08,4.02,6.28,4.38,4.57,4.57
33.89,0.55,-4.01,0.57,-4.00,4.00,3.94,6.18,4.55,4.57,4.56
34.23,0.82,-3.74,0.65,-3.91,3.91,3.86,6.08,4.74,4.56,4.57
34.57,1.09,-3.47,0.73,-3.83,3.83,3.78,5.97,4.91,4.56,4.55
34.92,1.34,-3.21,0.81,-3.74,3.74,3.70,5.85,5.09,4.55,4.55
35.27,1.16,-3.39,0.87,-3.68,3.68,3.62,5.73,4.83,4.55,4.55
35.62,0.84,-3.70,0.93,-3.62,3.62,3.54,5.60,4.45,4.54,4.54
35.97,0.51,-4.03,0.98,-3.56,3.56,3.46,5.47,4.07,4.54,4.54
36.33,0.76,-3.78,1.03,-3.51,3.51,3.38,5.33,4.27,4.54,4.54
36.70,1.04,-3.49,1.05,-3.49,3.49,3.31,5.19,4.53,4.54,4.53
37.06,1.27,-3.25,1.05,-3.49,3.49,3.23,5.05,4.76,4.54,4.52
37.43,1.18,-3.36,1.03,-3.50,3.50,3.16,4.91,4.69,4.54,4.54
37.81,1.10,-3.44,1.03,-3.51,3.51,3.08,4.77,4.60,4.53,4.53
38.19,1.04,-3.49,1.04,-3.49,3.49,3.01,4.62,4.53,4.53,4.53
38.57,0.99,-3.55,1.09,-3.45,3.45,2.93,4.48,4.43,4.53,4.53
38.95,0.94,-3.60,1.14,-3.39,3.39,2.86,4.34,4.33,4.53,4.54
39.34,1.06,-3.48,1.21,-3.32,3.32,2.79,4.20,4.37,4.53,4.53
39.74,1.20,-3.32,1.28,-3.25,3.25,2.72,4.06,4.46,4.53,4.53
40.14,1.32,-3.21,1.32,-3.21,3.21,2.65,3.92,4.53,4.53,4.53
40.54,1.40,-3.12,1.35,-3.18,3.18,2.58,3.78,4.58,4.52,4.52
40.94,1.48,-3.04,1.42,-3.10,3.10,2.51,3.65,4.58,4.52,4.52
41.35,1.64,-2.87,1.52,-2.99,2.99,2.44,3.51,4.63,4.51,4.51
41.76,1.80,-2.71,1.64,-2.87,2.87,2.37,3.38,4.66,4.50,4.50
42.18,1.83,-2.67,1.74,-2.76,2.76,2.30,3.25,4.59,4.49,4.51
42.60,1.70,-2.78,1.81,-2.67,2.67,2.23,3.12,4.38,4.48,4.49
43.03,1.59,-2.89,1.87,-2.60,2.60,2.17,3.00,4.19,4.47,4.48
43.46,1.75,-2.73,1.93,-2.52,2.52,2.10,2.87,4.27,4.46,4.47
43.90,1.90,-2.54,2.00,-2.44,2.44,2.04,2.75,4.35,4.44,4.44
44.33,2.21,-2.21,2.05,-2.38,2.38,1.97,2.63,4.59,4.43,4.42
44.78,2.55,-1.85,2.08,-2.33,2.33,1.91,2.52,4.89,4.42,4.40
45.23,2.54,-1.86,2.13,-2.27,2.27,1.84,2.40,4.80,4.40,4.39
45.68,2.17,-2.21,2.20,-2.19,2.19,1.78,2.29,4.35,4.38,4.37
46.13,1.92,-2.44,2.24,-2.13,2.13,1.72,2.18,4.05,4.37,4.35
46.60,1.98,-2.37,2.26,-2.09,2.09,1.66,2.07,4.07,4.35,4.35
47.06,2.09,-2.25,2.32,-2.01,2.01,1.59,1.96,4.10,4.33,4.33
47.53,2.40,-1.92,2.40,-1.91,1.91,1.53,1.86,4.31,4.32,4.32
48.01,2.69,-1.62,2.46,-1.84,1.84,1.47,1.76,4.53,4.30,4.32
48.49,2.52,-1.78,2.50,-1.78,1.78,1.41,1.65,4.30,4.28,4.30
48.97,2.35,-1.93,2.52,-1.75,1.75,1.35,1.56,4.09,4.27,4.27
49.46,2.59,-1.66,2.54,-1.71,1.71,1.29,1.46,4.30,4.25,4.25
49.96,2.85,-1.37,2.60,-1.64,1.64,1.23,1.36,4.50,4.24,4.23
50.46,2.69,-1.53,2.67,-1.55,1.55,1.17,1.27,4.24,4.22,4.22
50.96,2.48,-1.73,2.72,-1.48,1.48,1.11,1.18,3.96,4.21,4.21
51.47,2.83,-1.35,2.78,-1.41,1.41,1.05,1.08,4.24,4.19,4.18
51.99,3.23,-0.93,2.85,-1.33,1.33,1.00,1.00,4.56,4.18,4.16
52.51,2.98,-1.18,2.90,-1.26,1.26,0.94,0.91,4.24,4.16,4.16
53.03,2.72,-1.44,2.93,-1.21,1.21,0.88,0.82,3.93,4.14,4.15
53.56,2.75,-1.39,2.97,-1.16,1.16,0.82,0.74,3.91,4.13,4.13
54.10,2.82,-1.29,3.03,-1.09,1.09,0.76,0.65,3.91,4.11,4.12
54.64,3.11,-0.98,3.09,-1.01,1.01,0.70,0.57,4.13,4.10,4.10
55.18,3.22,-0.86,3.12,-0.97,0.97,0.65,0.49,4.19,4.09,4.09
55.74,3.01,-1.06,3.15,-0.92,0.92,0.59,0.41,3.93,4.07,4.07
56.29,3.19,-0.87,3.20,-0.86,0.86,0.53,0.34,4.04,4.06,4.06
56.86,3.75,-0.28,3.24,-0.80,0.80,0.47,0.26,4.55,4.04,4.03
57.42,3.55,-0.45,3.27,-0.75,0.75,0.42,0.19,4.30,4.02,4.00
58.00,3.10,-0.89,3.32,-0.68,0.68,0.36,0.12,3.77,3.99,3.99
58.58,3.21,-0.77,3.41,-0.56,0.56,0.30,0.05,3.76,3.97,3.98
59.16,3.35,-0.60,3.50,-0.44,0.44,0.24,-0.02,3.79,3.94,3.95
59.76,3.57,-0.35,3.54,-0.36,0.36,0.18,-0.09,3.93,3.91,3.93
60.35,3.55,-0.33,3.58,-0.29,0.29,0.12,-0.16,3.85,3.87,3.88
60.96,3.36,-0.49,3.62,-0.22,0.22,0.07,-0.22,3.57,3.83,3.84
61.57,3.60,-0.19,3.67,-0.12,0.12,0.01,-0.28,3.73,3.79,3.80
62.18,3.83,0.08,3.72,-0.03,0.03,-0.05,-0.35,3.85,3.75,3.75
62.80,3.89,0.19,3.75,0.05,-0.05,-0.11,-0.41,3.84,3.70,3.70
63.43,3.95,0.30,3.77,0.11,-0.11,-0.17,-0.47,3.83,3.66,3.65
64.07,4.01,0.41,3.82,0.22,-0.22,-0.24,-0.52,3.79,3.61,3.60
64.71,4.01,0.46,3.87,0.32,-0.32,-0.30,-0.58,3.69,3.56,3.55
65.35,3.88,0.38,3.89,0.39,-0.39,-0.36,-0.64,3.49,3.50,3.50
66.01,3.67,0.22,3.91,0.46,-0.46,-0.43,-0.69,3.20,3.45,3.45
66.67,3.94,0.55,3.94,0.54,-0.54,-0.49,-0.75,3.40,3.40,3.39
67.33,4.04,0.71,3.97,0.63,-0.63,-0.56,-0.80,3.41,3.34,3.34
68.01,3.96,0.66,4.01,0.72,-0.72,-0.62,-0.85,3.23,3.29,3.29
68.69,3.92,0.68,4.04,0.81,-0.81,-0.69,-0.90,3.11,3.23,3.24
69.37,3.90,0.72,4.07,0.90,-0.90,-0.76,-0.96,3.00,3.18,3.18
70.07,3.94,0.82,4.10,0.99,-0.99,-0.84,-1.01,2.95,3.12,3.12
70.77,4.22,1.15,4.14,1.09,-1.09,-0.91,-1.06,3.13,3.06,3.07
71.48,4.30,1.30,4.19,1.19,-1.19,-0.99,-1.11,3.11,2.99,3.01
72.19,4.33,1.39,4.25,1.31,-1.31,-1.06,-1.16,3.01,2.93,2.93
72.91,4.40,1.52,4.31,1.44,-1.44,-1.15,-1.22,2.95,2.87,2.87
73.64,4.41,1.60,4.37,1.56,-1.56,-1.23,-1.27,2.84,2.81,2.81
74.38,4.45,1.70,4.39,1.65,-1.65,-1.32,-1.32,2.80,2.74,2.74
75.12,4.51,1.83,4.42,1.74,-1.74,-1.41,-1.38,2.77,2.68,2.68
75.87,4.49,1.89,4.46,1.84,-1.84,-1.51,-1.43,2.66,2.62,2.61
76.63,4.33,1.78,4.50,1.94,-1.94,-1.61,-1.48,2.38,2.56,2.55
77.40,4.38,1.88,4.53,2.03,-2.03,-1.72,-1.54,2.34,2.50,2.49
78.17,4.61,2.18,4.54,2.10,-2.10,-1.83,-1.60,2.50,2.43,2.42
78.95,4.61,2.23,4.54,2.17,-2.17,-1.95,-1.66,2.44,2.38,2.38
79.74,4.61,2.29,4.55,2.24,-2.24,-2.07,-1.72,2.37,2.32,2.32
80.54,4.59,2.32,4.57,2.31,-2.31,-2.20,-1.78,2.27,2.26,2.27
81.35,4.49,2.28,4.60,2.39,-2.39,-2.33,-1.84,2.10,2.21,2.20
82.16,4.41,2.26,4.61,2.46,-2.46,-2.46,-1.90,1.94,2.15,2.15
82.98,4.69,2.58,4.62,2.52,-2.52,-2.60,-1.97,2.16,2.09,2.10
83.81,4.85,2.81,4.63,2.59,-2.59,-2.72,-2.04,2.26,2.04,2.03
84.65,4.76,2.78,4.64,2.66,-2.66,-2.84,-2.11,2.10,1.98,1.98
85.50,4.60,2.67,4.65,2.73,-2.73,-2.94,-2.18,1.87,1.92,1.93
86.35,4.57,2.70,4.65,2.79,-2.79,-3.03,-2.25,1.78,1.86,1.87
87.22,4.70,2.89,4.67,2.86,-2.86,-3.10,-2.33,1.84,1.81,1.81
88.09,4.71,2.95,4.69,2.94,-2.94,-3.15,-2.40,1.76,1.75,1.75
88.97,4.72,3.03,4.71,3.02,-3.02,-3.18,-2.48,1.69,1.69,1.69
89.86,4.68,3.05,4.73,3.10,-3.10,-3.19,-2.56,1.58,1.63,1.63
90.76,4.56,2.99,4.75,3.18,-3.18,-3.20,-2.64,1.37,1.57,1.56
91.66,4.68,3.16,4.77,3.26,-3.26,-3.20,-2.73,1.42,1.51,1.51
92.58,4.79,3.35,4.76,3.32,-3.32,-3.20,-2.81,1.47,1.45,1.44
93.51,4.82,3.43,4.77,3.38,-3.38,-3.20,-2.90,1.44,1.39,1.38
94.44,4.86,3.53,4.78,3.45,-3.45,-3.20,-2.99,1.41,1.33,1.33
95.39,4.94,3.66,4.79,3.52,-3.52,-3.21,-3.08,1.42,1.27,1.27
96.34,4.91,3.70,4.78,3.57,-3.57,-3.22,-3.17,1.33,1.21,1.21
97.30,4.73,3.57,4.77,3.62,-3.62,-3.24,-3.27,1.11,1.15,1.15
98.28,4.71,3.61,4.77,3.67,-3.67,-3.26,-3.36,1.03,1.10,1.10
99.26,4.77,3.73,4.76,3.72,-3.72,-3.29,-3.46,1.04,1.04,1.04
100.25,4.79,3.80,4.74,3.76,-3.76,-3.33,-3.56,1.03,0.98,0.98
101.25,4.61,3.68,4.70,3.77,-3.77,-3.37,-3.66,0.83,0.92,0.92
102.27,4.54,3.67,4.64,3.78,-3.78,-3.41,-3.76,0.76,0.86,0.87
103.29,4.53,3.73,4.59,3.78,-3.78,-3.46,-3.86,0.74,0.81,0.80
104.32,4.56,3.80,4.53,3.78,-3.78,-3.52,-3.96,0.78,0.75,0.75
105.37,4.59,3.89,4.46,3.77,-3.77,-3.57,-4.06,0.81,0.69,0.69
106.42,4.48,3.84,4.39,3.77,-3.77,-3.63,-4.16,0.71,0.62,0.64
107.48,4.43,3.86,4.33,3.77,-3.77,-3.69,-4.26,0.65,0.56,0.57
108.56,4.33,3.83,4.27,3.77,-3.77,-3.76,-4.36,0.55,0.50,0.50
109.64,4.13,3.69,4.20,3.76,-3.76,-3.82,-4.45,0.38,0.44,0.44
110.74,4.01,3.63,4.11,3.74,-3.74,-3.89,-4.55,0.27,0.38,0.38
111.85,3.97,3.64,4.04,3.72,-3.72,-3.97,-4.64,0.24,0.32,0.33
112.97,4.04,3.78,3.98,3.72,-3.72,-4.04,-4.73,0.32,0.26,0.25
114.10,3.94,3.74,3.90,3.71,-3.71,-4.11,-4.81,0.23,0.20,0.19
115.24,3.71,3.57,3.83,3.69,-3.69,-4.19,-4.89,0.02,0.14,0.14
116.39,3.79,3.71,3.76,3.67,-3.67,-4.27,-4.97,0.12,0.09,0.07
117.55,3.80,3.77,3.69,3.66,-3.66,-4.35,-5.04,0.14,0.03,0.03
118.73,3.68,3.70,3.64,3.66,-3.66,-4.43,-5.11,0.01,-0.02,-0.03
119.92,3.56,3.62,3.60,3.67,-3.67,-4.51,-5.17,-0.11,-0.06,-0.06
121.12,3.55,3.66,3.58,3.69,-3.69,-4.59,-5.23,-0.14,-0.11,-0.12
122.33,3.56,3.71,3.56,3.72,-3.72,-4.67,-5.28,-0.16,-0.16,-0.16
123.55,3.60,3.79,3.56,3.76,-3.76,-4.76,-5.32,-0.16,-0.20,-0.19
124.79,3.62,3.85,3.56,3.80,-3.80,-4.84,-5.36,-0.18,-0.24,-0.23
126.03,3.48,3.75,3.57,3.85,-3.85,-4.93,-5.39,-0.37,-0.28,-0.28
127.29,3.54,3.84,3.61,3.92,-3.92,-5.01,-5.41,-0.39,-0.32,-0.31
128.57,3.62,3.97,3.65,4.01,-4.01,-5.10,-5.43,-0.39,-0.36,-0.36
129.85,3.68,4.07,3.70,4.10,-4.10,-5.19,-5.44,-0.42,-0.39,-0.40
131.15,3.75,4.18,3.78,4.21,-4.21,-5.27,-5.45,-0.46,-0.43,-0.43
132.46,3.87,4.34,3.87,4.34,-4.34,-5.36,-5.45,-0.47,-0.47,-0.47
133.79,4.00,4.51,3.97,4.48,-4.48,-5.45,-5.45,-0.48,-0.51,-0.51
135.12,4.09,4.64,4.09,4.63,-4.63,-5.53,-5.44,-0.54,-0.54,-0.55
136.48,4.18,4.75,4.20,4.78,-4.78,-5.62,-5.43,-0.60,-0.58,-0.58
137.84,4.29,4.91,4.32,4.94,-4.94,-5.71,-5.41,-0.65,-0.62,-0.62
139.22,4.44,5.10,4.45,5.10,-5.10,-5.79,-5.40,-0.66,-0.65,-0.67
140.61,4.55,5.25,4.57,5.27,-5.27,-5.87,-5.38,-0.72,-0.69,-0.71
142.02,4.67,5.39,4.69,5.42,-5.42,-5.96,-5.35,-0.76,-0.73,-0.73
143.44,4.85,5.62,4.80,5.57,-5.57,-6.04,-5.33,-0.72,-0.77,-0.77
144.87,4.93,5.74,4.90,5.72,-5.72,-6.12,-5.30,-0.80,-0.82,-0.82
146.32,5.06,5.92,4.99,5.87,-5.87,-6.20,-5.28,-0.81,-0.87,-0.87
147.78,5.17,6.07,5.07,6.00,-6.00,-6.28,-5.25,-0.83,-0.93,-0.90
149.26,5.13,6.09,5.12,6.12,-6.12,-6.35,-5.23,-0.99,-0.99,-0.96
150.75,5.12,6.15,5.16,6.22,-6.22,-6.42,-5.20,-1.10,-1.06,-1.04
152.26,5.20,6.31,5.17,6.30,-6.30,-6.49,-5.18,-1.10,-1.13,-1.11
153.78,5.24,6.42,5.16,6.37,-6.37,-6.56,-5.16,-1.13,-1.20,-1.18
155.32,5.24,6.50,5.14,6.42,-6.42,-6.63,-5.14,-1.18,-1.28,-1.27
156.88,5.20,6.54,5.10,6.46,-6.46,-6.69,-5.12,-1.27,-1.36,-1.35
158.44,5.15,6.58,5.07,6.50,-6.50,-6.75,-5.11,-1.36,-1.43,-1.44
160.03,5.08,6.60,5.03,6.54,-6.54,-6.81,-5.10,-1.46,-1.51,-1.53
161.63,4.97,6.57,4.99,6.58,-6.58,-6.86,-5.09,-1.61,-1.58,-1.61
163.24,4.87,6.54,4.96,6.62,-6.62,-6.91,-5.08,-1.75,-1.65,-1.67
164.88,4.77,6.50,4.94,6.66,-6.66,-6.95,-5.08,-1.89,-1.71,-1.73
166.53,4.76,6.54,4.93,6.70,-6.70,-7.00,-5.08,-1.94,-1.77,-1.79
168.19,4.80,6.63,4.92,6.74,-6.74,-7.03,-5.08,-1.94,-1.81,-1.83
169.87,4.86,6.73,4.92,6.77,-6.77,-7.07,-5.09,-1.92,-1.85,-1.88
171.57,4.90,6.79,4.93,6.81,-6.81,-7.09,-5.11,-1.92,-1.88,-1.90
173.29,5.02,6.94,4.95,6.86,-6.86,-7.12,-5.12,-1.85,-1.91,-1.92
175.02,5.10,7.03,4.98,6.91,-6.91,-7.14,-5.14,-1.82,-1.93,-1.93
176.77,5.10,7.05,5.01,6.96,-6.96,-7.15,-5.17,-1.86,-1.95,-1.95
178.54,5.10,7.06,5.05,7.01,-7.01,-7.16,-5.19,-1.91,-1.96,-1.96
180.32,5.10,7.05,5.09,7.05,-7.05,-7.17,-5.23,-1.96,-1.97,-1.96
182.13,5.12,7.07,5.11,7.09,-7.09,-7.17,-5.26,-1.98,-1.98,-1.96
183.95,5.11,7.08,5.13,7.12,-7.12,-7.16,-5.30,-2.01,-1.99,-1.97
185.79,5.13,7.11,5.12,7.13,-7.13,-7.15,-5.35,-2.00,-2.00,-1.98
187.65,5.14,7.14,5.11,7.13,-7.13,-7.14,-5.39,-1.99,-2.02,-2.01
189.52,5.16,7.18,5.09,7.12,-7.12,-7.12,-5.45,-1.96,-2.03,-2.02
191.42,5.08,7.12,5.06,7.10,-7.10,-7.10,-5.50,-2.03,-2.05,-2.04
193.33,5.01,7.07,5.02,7.09,-7.09,-7.07,-5.56,-2.08,-2.07,-2.07
195.27,5.00,7.09,4.98,7.07,-7.07,-7.04,-5.62,-2.07,-2.09,-2.09
197.22,4.97,7.08,4.95,7.06,-7.06,-7.00,-5.68,-2.09,-2.11,-2.11
199.19,4.90,7.04,4.91,7.04,-7.04,-6.96,-5.75,-2.15,-2.13,-2.14
201.18,4.81,6.97,4.86,7.02,-7.02,-6.92,-5.82,-2.22,-2.16,-2.16
203.19,4.74,6.92,4.82,7.00,-7.00,-6.87,-5.89,-2.26,-2.18,-2.18
205.23,4.72,6.93,4.77,6.97,-6.97,-6.82,-5.97,-2.26,-2.21,-2.21
207.28,4.73,6.95,4.71,6.94,-6.94,-6.76,-6.04,-2.21,-2.23,-2.22
209.35,4.70,6.94,4.65,6.90,-6.90,-6.71,-6.12,-2.20,-2.25,-2.25
211.44,4.62,6.90,4.59,6.86,-6.86,-6.65,-6.19,-2.25,-2.27,-2.28
213.56,4.59,6.88,4.54,6.83,-6.83,-6.58,-6.27,-2.24,-2.29,-2.29
215.69,4.55,6.85,4.48,6.79,-6.79,-6.52,-6.34,-2.24,-2.31,-2.31
217.85,4.51,6.83,4.42,6.74,-6.74,-6.45,-6.42,-2.24,-2.32,-2.32
220.03,4.37,6.70,4.37,6.71,-6.71,-6.38,-6.49,-2.34,-2.34,-2.34
222.23,4.28,6.64,4.33,6.67,-6.67,-6.30,-6.56,-2.40,-2.35,-2.36
224.45,4.30,6.65,4.29,6.64,-6.64,-6.23,-6.62,-2.35,-2.35,-2.36
226.70,4.20,6.56,4.27,6.63,-6.63,-6.15,-6.68,-2.43,-2.35,-2.36
228.96,4.14,6.49,4.26,6.62,-6.62,-6.08,-6.73,-2.48,-2.35,-2.35
231.25,4.20,6.54,4.27,6.61,-6.61,-6.00,-6.78,-2.42,-2.35,-2.35
233.57,4.23,6.56,4.28,6.62,-6.62,-5.92,-6.83,-2.39,-2.34,-2.34
235.90,4.20,6.53,4.30,6.63,-6.63,-5.84,-6.86,-2.43,-2.33,-2.33
238.26,4.19,6.51,4.32,6.63,-6.63,-5.75,-6.89,-2.45,-2.31,-2.32
240.64,4.32,6.62,4.34,6.64,-6.64,-5.67,-6.90,-2.32,-2.29,-2.30
243.05,4.40,6.67,4.35,6.63,-6.63,-5.59,-6.91,-2.24,-2.28,-2.27
245.48,4.42,6.67,4.36,6.61,-6.61,-5.51,-6.91,-2.20,-2.26,-2.25
247.93,4.51,6.73,4.34,6.58,-6.58,-5.42,-6.90,-2.07,-2.23,-2.22
250.41,4.49,6.70,4.31,6.52,-6.52,-5.34,-6.87,-2.03,-2.21,-2.21
252.92,4.40,6.58,4.25,6.44,-6.44,-5.26,-6.84,-2.05,-2.19,-2.18
255.45,4.27,6.43,4.17,6.33,-6.33,-5.17,-6.80,-2.07,-2.17,-2.16
258.00,4.11,6.24,4.05,6.20,-6.20,-5.09,-6.75,-2.09,-2.15,-2.14
260.58,3.95,6.07,3.93,6.05,-6.05,-5.01,-6.68,-2.10,-2.12,-2.13
263.19,3.77,5.86,3.78,5.88,-5.88,-4.92,-6.61,-2.11,-2.10,-2.09
265.82,3.57,5.65,3.60,5.68,-5.68,-4.84,-6.53,-2.11,-2.08,-2.08
268.48,3.39,5.44,3.41,5.46,-5.46,-4.76,-6.44,-2.08,-2.05,-2.06
271.16,3.19,5.21,3.21,5.24,-5.24,-4.68,-6.34,-2.05,-2.03,-2.03
273.87,2.99,5.00,3.01,5.02,-5.02,-4.59,-6.24,-2.03,-2.01,-2.01
276.61,2.78,4.75,2.81,4.79,-4.79,-4.51,-6.12,-2.01,-1.98,-1.98
279.38,2.63,4.58,2.62,4.57,-4.57,-4.43,-6.01,-1.95,-1.96,-1.96
282.17,2.45,4.38,2.44,4.37,-4.37,-4.35,-5.89,-1.92,-1.93,-1.93
284.99,2.30,4.19,2.28,4.18,-4.18,-4.28,-5.76,-1.88,-1.90,-1.90
287.84,2.15,4.03,2.14,4.01,-4.01,-4.20,-5.63,-1.87,-1.87,-1.88
290.72,1.97,3.81,2.02,3.87,-3.87,-4.12,-5.50,-1.90,-1.85,-1.85
293.63,1.84,3.66,1.93,3.75,-3.75,-4.04,-5.37,-1.91,-1.82,-1.82
296.57,1.79,3.57,1.86,3.65,-3.65,-3.97,-5.23,-1.86,-1.79,-1.79
299.53,1.76,3.52,1.81,3.57,-3.57,-3.89,-5.09,-1.81,-1.76,-1.76
302.53,1.68,3.42,1.77,3.51,-3.51,-3.82,-4.96,-1.84,-1.74,-1.75
305.55,1.66,3.36,1.76,3.47,-3.47,-3.75,-4.82,-1.82,-1.71,-1.70
308.61,1.69,3.37,1.76,3.45,-3.45,-3.68,-4.68,-1.76,-1.69,-1.69
311.69,1.76,3.42,1.76,3.43,-3.43,-3.60,-4.54,-1.67,-1.67,-1.66
314.81,1.85,3.48,1.78,3.43,-3.43,-3.53,-4.41,-1.58,-1.65,-1.64
317.96,1.94,3.55,1.80,3.43,-3.43,-3.46,-4.27,-1.50,-1.63,-1.62
321.14,1.93,3.54,1.83,3.44,-3.44,-3.40,-4.14,-1.51,-1.61,-1.61
324.35,1.89,3.48,1.85,3.44,-3.44,-3.33,-4.01,-1.55,-1.59,-1.60
327.59,1.88,3.46,1.86,3.44,-3.44,-3.26,-3.88,-1.56,-1.58,-1.58
330.87,1.88,3.45,1.86,3.43,-3.43,-3.20,-3.75,-1.55,-1.57,-1.57
334.18,1.88,3.43,1.85,3.41,-3.41,-3.13,-3.62,-1.53,-1.56,-1.56
337.52,1.82,3.36,1.83,3.38,-3.38,-3.07,-3.50,-1.56,-1.55,-1.55
340.90,1.78,3.31,1.79,3.33,-3.33,-3.00,-3.38,-1.55,-1.54,-1.53
344.30,1.76,3.28,1.73,3.26,-3.26,-2.94,-3.26,-1.51,-1.53,-1.53
347.75,1.75,3.27,1.67,3.19,-3.19,-2.88,-3.14,-1.45,-1.53,-1.53
351.23,1.62,3.14,1.60,3.12,-3.12,-2.82,-3.02,-1.51,-1.52,-1.52
354.74,1.50,3.02,1.53,3.05,-3.05,-2.76,-2.91,-1.55,-1.52,-1.52
358.28,1.45,2.96,1.46,2.98,-2.98,-2.70,-2.80,-1.53,-1.52,-1.52
361.87,1.40,2.91,1.38,2.90,-2.90,-2.64,-2.69,-1.51,-1.52,-1.52
365.49,1.30,2.81,1.30,2.82,-2.82,-2.58,-2.58,-1.52,-1.52,-1.51
369.14,1.11,2.63,1.21,2.73,-2.73,-2.52,-2.48,-1.63,-1.52,-1.52
372.83,1.04,2.56,1.11,2.63,-2.63,-2.47,-2.38,-1.60,-1.52,-1.52
376.56,1.01,2.53,1.01,2.53,-2.53,-2.41,-2.27,-1.52,-1.52,-1.53
380.33,0.98,2.49,0.90,2.43,-2.43,-2.36,-2.18,-1.45,-1.53,-1.52
384.13,0.91,2.43,0.80,2.33,-2.33,-2.30,-2.08,-1.42,-1.53,-1.52
387.97,0.77,2.30,0.69,2.22,-2.22,-2.25,-1.99,-1.46,-1.53,-1.53
391.85,0.62,2.16,0.58,2.12,-2.12,-2.19,-1.89,-1.50,-1.54,-1.54
395.77,0.52,2.05,0.47,2.01,-2.01,-2.14,-1.80,-1.50,-1.55,-1.54
399.73,0.39,1.93,0.36,1.91,-1.91,-2.09,-1.71,-1.53,-1.55,-1.55
403.72,0.23,1.77,0.27,1.82,-1.82,-2.03,-1.63,-1.60,-1.56,-1.55
407.76,0.10,1.65,0.18,1.74,-1.74,-1.98,-1.54,-1.65,-1.56,-1.56
411.84,-0.02,1.54,0.10,1.67,-1.67,-1.93,-1.46,-1.69,-1.56,-1.56
415.96,0.01,1.57,0.03,1.60,-1.60,-1.88,-1.38,-1.59,-1.57,-1.56
420.12,0.03,1.59,-0.02,1.54,-1.54,-1.82,-1.30,-1.52,-1.56,-1.56
424.32,-0.16,1.40,-0.07,1.49,-1.49,-1.77,-1.23,-1.66,-1.56,-1.56
428.56,-0.21,1.34,-0.10,1.45,-1.45,-1.72,-1.15,-1.66,-1.55,-1.56
432.85,-0.17,1.37,-0.12,1.41,-1.41,-1.67,-1.08,-1.59,-1.53,-1.55
437.18,-0.09,1.44,-0.13,1.39,-1.39,-1.61,-1.01,-1.48,-1.51,-1.54
441.55,-0.06,1.43,-0.12,1.36,-1.36,-1.56,-0.95,-1.43,-1.49,-1.50
445.96,-0.09,1.38,-0.12,1.34,-1.34,-1.51,-0.88,-1.44,-1.46,-1.47
450.42,-0.06,1.38,-0.11,1.31,-1.31,-1.45,-0.82,-1.38,-1.42,-1.44
454.93,-0.04,1.35,-0.10,1.28,-1.28,-1.40,-0.76,-1.33,-1.38,-1.39
459.48,-0.03,1.31,-0.10,1.24,-1.24,-1.34,-0.70,-1.28,-1.34,-1.34
464.07,-0.10,1.19,-0.11,1.18,-1.18,-1.29,-0.65,-1.29,-1.29,-1.29
468.71,-0.16,1.07,-0.12,1.13,-1.13,-1.23,-0.60,-1.29,-1.24,-1.23
473.40,-0.15,1.04,-0.13,1.07,-1.07,-1.17,-0.55,-1.22,-1.19,-1.20
478.13,-0.13,1.00,-0.15,0.99,-0.99,-1.11,-0.50,-1.13,-1.15,-1.14
482.91,-0.11,0.98,-0.19,0.91,-0.91,-1.05,-0.46,-1.03,-1.10,-1.10
487.74,-0.18,0.87,-0.22,0.84,-0.84,-0.98,-0.42,-1.02,-1.06,-1.06
492.62,-0.26,0.74,-0.26,0.76,-0.76,-0.92,-0.38,-1.03,-1.02,-1.01
497.55,-0.33,0.65,-0.30,0.69,-0.69,-0.85,-0.34,-1.02,-0.99,-0.99
502.52,-0.36,0.60,-0.36,0.61,-0.61,-0.78,-0.31,-0.98,-0.97,-0.96
507.55,-0.46,0.49,-0.41,0.54,-0.54,-0.71,-0.28,-1.01,-0.96,-0.95
