frequency,raw,error,smoothed,error_smoothed,equalization,parametric_eq,fixed_band_eq,equalized_raw,equalized_smoothed,target
20.00,-16.77,-25.56,-16.77,-25.56,25.56,25.69,12.42,8.79,8.79,8.79
20.20,-16.64,-25.43,-16.64,-25.43,25.43,25.50,12.61,8.79,8.79,8.79
20.40,-16.52,-25.31,-16.51,-25.30,25.30,25.32,12.81,8.78,8.79,8.79
20.61,-16.38,-25.17,-16.38,-25.16,25.16,25.12,13.01,8.78,8.79,8.79
20.81,-16.24,-25.02,-16.25,-25.03,25.03,24.93,13.21,8.79,8.79,8.78
21.02,-16.11,-24.89,-16.12,-24.90,24.90,24.74,13.42,8.79,8.78,8.78
21.23,-15.97,-24.75,-15.99,-24.77,24.77,24.54,13.63,8.80,8.78,8.78
21.44,-15.85,-24.64,-15.86,-24.64,24.64,24.35,13.85,8.79,8.78,8.79
21.66,-15.72,-24.50,-15.73,-24.51,24.51,24.17,14.07,8.78,8.77,8.78
21.87,-15.60,-24.38,-15.60,-24.38,24.38,23.98,14.30,8.78,8.77,8.78
22.09,-15.47,-24.24,-15.48,-24.24,24.24,23.80,14.54,8.77,8.77,8.77
22.31,-15.35,-24.12,-15.35,-24.11,24.11,23.63,14.78,8.76,8.76,8.77
22.54,-15.23,-23.99,-15.22,-23.98,23.98,23.46,15.03,8.75,8.76,8.76
22.76,-15.10,-23.86,-15.10,-23.85,23.85,23.30,15.29,8.75,8.75,8.76
22.99,-14.98,-23.73,-14.97,-23.72,23.72,23.14,15.55,8.74,8.75,8.75
23.22,-14.86,-23.60,-14.85,-23.59,23.59,22.99,15.82,8.73,8.74,8.74
23.45,-14.72,-23.46,-14.72,-23.46,23.46,22.84,16.10,8.74,8.74,8.74
23.69,-14.60,-23.33,-14.60,-23.33,23.33,22.69,16.38,8.73,8.73,8.73
23.92,-14.47,-23.19,-14.47,-23.20,23.20,22.56,16.68,8.73,8.73,8.72
24.16,-14.34,-23.06,-14.34,-23.07,23.07,22.42,16.99,8.73,8.72,8.72
24.40,-14.22,-22.94,-14.22,-22.94,22.94,22.29,17.30,8.72,8.72,8.72
24.65,-14.09,-22.81,-14.09,-22.80,22.80,22.17,17.63,8.71,8.71,8.72
24.89,-13.96,-22.68,-13.96,-22.67,22.67,22.05,17.97,8.71,8.71,8.72
25.14,-13.83,-22.54,-13.83,-22.54,22.54,21.93,18.31,8.71,8.71,8.71
25.39,-13.70,-22.40,-13.70,-22.41,22.41,21.82,18.68,8.71,8.71,8.70
25.65,-13.57,-22.27,-13.57,-22.28,22.28,21.71,19.05,8.71,8.71,8.70
25.91,-13.44,-22.14,-13.44,-22.15,22.15,21.61,19.44,8.70,8.71,8.70
26.16,-13.31,-22.02,-13.31,-22.02,22.02,21.50,19.85,8.71,8.70,8.71
26.43,-13.18,-21.89,-13.18,-21.89,21.89,21.40,20.27,8.70,8.70,8.71
26.69,-13.05,-21.76,-13.05,-21.75,21.75,21.30,20.71,8.70,8.70,8.71
26.96,-12.92,-21.62,-12.92,-21.62,21.62,21.20,21.16,8.70,8.70,8.70
27.23,-12.78,-21.48,-12.79,-21.49,21.49,21.11,21.63,8.71,8.70,8.70
27.50,-12.66,-21.36,-12.66,-21.35,21.35,21.01,22.12,8.69,8.70,8.70
27.77,-12.52,-21.23,-12.52,-21.22,21.22,20.92,22.63,8.70,8.70,8.71
28.05,-12.39,-21.09,-12.39,-21.09,21.09,20.82,23.16,8.70,8.69,8.70
28.33,-12.26,-20.95,-12.26,-20.95,20.95,20.73,23.70,8.69,8.69,8.69
28.62,-12.12,-20.80,-12.13,-20.81,20.81,20.63,24.25,8.69,8.69,8.68
28.90,-11.99,-20.68,-11.99,-20.67,20.67,20.53,24.80,8.68,8.68,8.69
29.19,-11.86,-20.54,-11.86,-20.53,20.53,20.44,25.36,8.67,8.67,8.68
29.48,-11.72,-20.39,-11.72,-20.39,20.39,20.34,25.90,8.67,8.67,8.67
29.78,-11.58,-20.24,-11.59,-20.25,20.25,20.23,26.40,8.67,8.66,8.66
30.08,-11.45,-20.11,-11.45,-20.11,20.11,20.13,26.85,8.66,8.66,8.66
30.38,-11.32,-19.97,-11.31,-19.97,19.97,20.02,27.22,8.65,8.65,8.65
30.68,-11.18,-19.82,-11.18,-19.83,19.83,19.91,27.48,8.65,8.65,8.64
30.99,-11.03,-19.67,-11.04,-19.68,19.68,19.79,27.62,8.65,8.65,8.64
31.30,-10.90,-19.54,-10.90,-19.54,19.54,19.67,27.61,8.64,8.64,8.64
31.61,-10.76,-19.40,-10.76,-19.40,19.40,19.55,27.46,8.64,8.64,8.64
31.93,-10.62,-19.25,-10.62,-19.26,19.26,19.43,27.17,8.64,8.64,8.63
32.24,-10.48,-19.12,-10.48,-19.12,19.12,19.29,26.79,8.64,8.63,8.64
32.57,-10.34,-18.97,-10.34,-18.97,18.97,19.16,26.32,8.63,8.63,8.63
32.89,-10.20,-18.83,-10.20,-18.83,18.83,19.02,25.80,8.63,8.63,8.63
33.22,-10.06,-18.69,-10.06,-18.68,18.68,18.87,25.25,8.62,8.62,8.63
33.55,-9.92,-18.54,-9.92,-18.53,18.53,18.73,24.69,8.62,8.62,8.62
33.89,-9.78,-18.39,-9.78,-18.38,18.38,18.57,24.12,8.60,8.61,8.61
34.23,-9.64,-18.23,-9.64,-18.23,18.23,18.41,23.56,8.59,8.60,8.59
34.57,-9.49,-18.08,-9.49,-18.08,18.08,18.25,23.01,8.58,8.58,8.59
34.92,-9.35,-17.92,-9.35,-17.92,17.92,18.08,22.47,8.56,8.57,8.57
35.27,-9.21,-17.77,-9.21,-17.75,17.75,17.91,21.95,8.54,8.55,8.56
35.62,-9.06,-17.59,-9.06,-17.59,17.59,17.74,21.45,8.53,8.53,8.53
35.97,-8.92,-17.43,-8.92,-17.42,17.42,17.56,20.96,8.50,8.50,8.51
36.33,-8.77,-17.25,-8.78,-17.25,17.25,17.38,20.50,8.48,8.48,8.48
36.70,-8.64,-17.09,-8.63,-17.08,17.08,17.19,20.05,8.44,8.45,8.45
37.06,-8.48,-16.90,-8.49,-16.91,16.91,17.01,19.61,8.43,8.42,8.42
37.43,-8.34,-16.73,-8.34,-16.73,16.73,16.81,19.20,8.39,8.39,8.39
37.81,-8.20,-16.56,-8.20,-16.56,16.56,16.62,18.79,8.36,8.36,8.36
38.19,-8.05,-16.37,-8.05,-16.38,16.38,16.43,18.40,8.33,8.33,8.32
38.57,-7.91,-16.21,-7.91,-16.20,16.20,16.23,18.03,8.29,8.30,8.30
38.95,-7.76,-16.03,-7.76,-16.03,16.03,16.03,17.66,8.27,8.27,8.27
39.34,-7.61,-15.84,-7.62,-15.85,15.85,15.83,17.31,8.24,8.24,8.23
39.74,-7.47,-15.67,-7.47,-15.68,15.68,15.63,16.97,8.21,8.21,8.20
40.14,-7.32,-15.50,-7.33,-15.51,15.51,15.42,16.64,8.18,8.18,8.18
40.54,-7.18,-15.34,-7.18,-15.33,15.33,15.22,16.32,8.15,8.15,8.16
40.94,-7.03,-15.16,-7.03,-15.16,15.16,15.02,16.01,8.13,8.13,8.13
41.35,-6.89,-14.99,-6.89,-14.99,14.99,14.82,15.71,8.10,8.10,8.10
41.76,-6.74,-14.81,-6.74,-14.82,14.82,14.61,15.41,8.08,8.08,8.07
42.18,-6.60,-14.66,-6.60,-14.65,14.65,14.41,15.12,8.05,8.05,8.06
42.60,-6.45,-14.48,-6.45,-14.48,14.48,14.21,14.84,8.03,8.03,8.03
43.03,-6.31,-14.31,-6.30,-14.31,14.31,14.00,14.57,8.00,8.00,8.00
43.46,-6.16,-14.14,-6.16,-14.14,14.14,13.80,14.30,7.98,7.98,7.98
43.90,-6.01,-13.97,-6.01,-13.96,13.96,13.60,14.04,7.95,7.96,7.96
44.33,-5.86,-13.78,-5.86,-13.79,13.79,13.40,13.79,7.93,7.93,7.92
44.78,-5.72,-13.62,-5.71,-13.62,13.62,13.20,13.54,7.89,7.90,7.90
45.23,-5.57,-13.46,-5.57,-13.44,13.44,13.01,13.30,7.87,7.87,7.89
45.68,-5.42,-13.27,-5.42,-13.26,13.26,12.81,13.06,7.84,7.84,7.85
46.13,-5.27,-13.07,-5.28,-13.08,13.08,12.62,12.82,7.82,7.81,7.80
46.60,-5.13,-12.91,-5.13,-12.90,12.90,12.43,12.60,7.77,7.77,7.78
47.06,-4.98,-12.72,-4.99,-12.72,12.72,12.23,12.37,7.74,7.73,7.74
47.53,-4.84,-12.55,-4.85,-12.54,12.54,12.05,12.15,7.70,7.69,7.71
48.01,-4.70,-12.35,-4.70,-12.36,12.36,11.86,11.93,7.66,7.65,7.65
48.49,-4.56,-12.18,-4.56,-12.17,12.17,11.67,11.72,7.61,7.61,7.62
48.97,-4.43,-12.00,-4.43,-11.99,11.99,11.49,11.51,7.56,7.57,7.57
49.46,-4.29,-11.82,-4.29,-11.81,11.81,11.31,11.30,7.52,7.52,7.53
49.96,-4.16,-11.62,-4.15,-11.63,11.63,11.13,11.10,7.46,7.48,7.46
50.46,-4.01,-11.43,-4.02,-11.44,11.44,10.95,10.90,7.43,7.43,7.42
50.96,-3.88,-11.25,-3.88,-11.26,11.26,10.78,10.71,7.38,7.38,7.37
51.47,-3.75,-11.08,-3.75,-11.09,11.09,10.60,10.52,7.33,7.34,7.33
51.99,-3.62,-10.90,-3.62,-10.91,10.91,10.43,10.33,7.28,7.29,7.28
52.51,-3.49,-10.73,-3.49,-10.73,10.73,10.26,10.14,7.24,7.24,7.24
53.03,-3.36,-10.57,-3.36,-10.55,10.55,10.09,9.96,7.19,7.19,7.21
53.56,-3.23,-10.39,-3.23,-10.38,10.38,9.93,9.78,7.15,7.15,7.16
54.10,-3.09,-10.19,-3.10,-10.20,10.20,9.77,9.60,7.11,7.10,7.10
54.64,-2.98,-10.04,-2.98,-10.03,10.03,9.61,9.43,7.05,7.06,7.06
55.18,-2.86,-9.86,-2.85,-9.87,9.87,9.45,9.26,7.01,7.01,7.00
55.74,-2.73,-9.69,-2.73,-9.70,9.70,9.29,9.09,6.97,6.97,6.96
56.29,-2.62,-9.54,-2.61,-9.54,9.54,9.14,8.93,6.92,6.93,6.92
56.86,-2.50,-9.38,-2.50,-9.38,9.38,8.98,8.77,6.88,6.88,6.88
57.42,-2.38,-9.20,-2.38,-9.22,9.22,8.83,8.61,6.84,6.84,6.82
58.00,-2.27,-9.05,-2.27,-9.06,9.06,8.69,8.46,6.79,6.79,6.78
58.58,-2.16,-8.91,-2.16,-8.90,8.90,8.54,8.30,6.74,6.74,6.75
59.16,-2.05,-8.76,-2.06,-8.75,8.75,8.39,8.16,6.70,6.69,6.71
59.76,-1.95,-8.62,-1.96,-8.59,8.59,8.25,8.01,6.64,6.64,6.67
60.35,-1.85,-8.45,-1.86,-8.44,8.44,8.11,7.87,6.59,6.58,6.60
60.96,-1.76,-8.31,-1.76,-8.29,8.29,7.97,7.73,6.53,6.53,6.55
61.57,-1.67,-8.14,-1.67,-8.14,8.14,7.84,7.60,6.47,6.47,6.47
62.18,-1.58,-7.99,-1.58,-8.00,8.00,7.70,7.47,6.42,6.42,6.41
62.80,-1.49,-7.84,-1.49,-7.85,7.85,7.57,7.34,6.36,6.36,6.35
63.43,-1.41,-7.69,-1.41,-7.71,7.71,7.44,7.22,6.30,6.30,6.28
64.07,-1.33,-7.56,-1.32,-7.57,7.57,7.31,7.10,6.24,6.25,6.23
64.71,-1.24,-7.42,-1.24,-7.43,7.43,7.19,6.98,6.19,6.19,6.18
65.35,-1.17,-7.30,-1.16,-7.29,7.29,7.06,6.86,6.12,6.13,6.13
66.01,-1.09,-7.16,-1.09,-7.16,7.16,6.94,6.75,6.07,6.07,6.07
66.67,-1.01,-7.04,-1.01,-7.03,7.03,6.82,6.64,6.02,6.02,6.03
67.33,-0.93,-6.89,-0.94,-6.90,6.90,6.70,6.53,5.97,5.96,5.96
68.01,-0.87,-6.78,-0.87,-6.78,6.78,6.58,6.43,5.90,5.90,5.91
68.69,-0.80,-6.65,-0.80,-6.65,6.65,6.47,6.32,5.85,5.85,5.85
69.37,-0.74,-6.54,-0.74,-6.53,6.53,6.35,6.22,5.79,5.79,5.80
70.07,-0.67,-6.42,-0.67,-6.41,6.41,6.24,6.13,5.74,5.74,5.75
70.77,-0.61,-6.30,-0.61,-6.29,6.29,6.13,6.03,5.68,5.68,5.69
71.48,-0.55,-6.18,-0.55,-6.17,6.17,6.02,5.94,5.62,5.62,5.63
72.19,-0.50,-6.06,-0.50,-6.06,6.06,5.91,5.84,5.56,5.56,5.56
72.91,-0.44,-5.95,-0.44,-5.95,5.95,5.81,5.75,5.51,5.51,5.51
73.64,-0.39,-5.83,-0.39,-5.84,5.84,5.70,5.66,5.45,5.45,5.44
74.38,-0.34,-5.72,-0.34,-5.73,5.73,5.60,5.58,5.39,5.39,5.38
75.12,-0.28,-5.61,-0.29,-5.63,5.63,5.50,5.49,5.35,5.34,5.33
75.87,-0.24,-5.53,-0.24,-5.52,5.52,5.40,5.40,5.28,5.28,5.29
76.63,-0.20,-5.43,-0.20,-5.42,5.42,5.30,5.32,5.22,5.23,5.23
77.40,-0.15,-5.32,-0.15,-5.32,5.32,5.21,5.24,5.17,5.17,5.17
78.17,-0.11,-5.22,-0.11,-5.23,5.23,5.11,5.15,5.12,5.12,5.11
78.95,-0.07,-5.15,-0.07,-5.13,5.13,5.02,5.07,5.06,5.07,5.08
79.74,-0.03,-5.05,-0.03,-5.04,5.04,4.93,4.99,5.01,5.02,5.02
80.54,0.01,-4.95,0.01,-4.95,4.95,4.83,4.91,4.96,4.96,4.96
81.35,0.05,-4.87,0.05,-4.87,4.87,4.75,4.83,4.91,4.91,4.92
82.16,0.09,-4.78,0.08,-4.78,4.78,4.66,4.75,4.87,4.86,4.87
82.98,0.12,-4.69,0.12,-4.69,4.69,4.57,4.67,4.81,4.81,4.81
83.81,0.16,-4.60,0.15,-4.61,4.61,4.49,4.59,4.77,4.76,4.76
84.65,0.18,-4.52,0.18,-4.52,4.52,4.40,4.51,4.70,4.70,4.70
85.50,0.21,-4.44,0.21,-4.44,4.44,4.32,4.43,4.65,4.65,4.65
86.35,0.24,-4.36,0.24,-4.36,4.36,4.24,4.35,4.60,4.60,4.60
87.22,0.26,-4.29,0.26,-4.28,4.28,4.16,4.27,4.54,4.55,4.55
88.09,0.29,-4.20,0.29,-4.20,4.20,4.08,4.20,4.49,4.49,4.49
88.97,0.31,-4.13,0.31,-4.13,4.13,4.00,4.12,4.44,4.44,4.44
89.86,0.33,-4.05,0.33,-4.05,4.05,3.92,4.04,4.38,4.38,4.38
90.76,0.36,-3.96,0.35,-3.97,3.97,3.85,3.96,4.33,4.32,4.32
91.66,0.37,-3.90,0.37,-3.89,3.89,3.77,3.88,4.26,4.26,4.27
92.58,0.39,-3.82,0.39,-3.81,3.81,3.70,3.81,4.20,4.20,4.21
93.51,0.41,-3.74,0.41,-3.73,3.73,3.63,3.73,4.14,4.14,4.15
94.44,0.43,-3.66,0.43,-3.65,3.65,3.56,3.65,4.08,4.08,4.09
95.39,0.45,-3.57,0.44,-3.57,3.57,3.49,3.58,4.02,4.01,4.02
96.34,0.46,-3.49,0.46,-3.49,3.49,3.42,3.50,3.95,3.95,3.95
97.30,0.47,-3.42,0.47,-3.41,3.41,3.35,3.42,3.88,3.88,3.89
98.28,0.48,-3.32,0.48,-3.33,3.33,3.28,3.35,3.81,3.81,3.80
99.26,0.49,-3.24,0.49,-3.26,3.26,3.22,3.27,3.74,3.75,3.73
100.25,0.50,-3.17,0.50,-3.18,3.18,3.15,3.20,3.68,3.68,3.67
101.25,0.51,-3.10,0.51,-3.11,3.11,3.09,3.12,3.62,3.62,3.61
102.27,0.52,-3.03,0.51,-3.04,3.04,3.02,3.05,3.56,3.55,3.55
103.29,0.52,-2.96,0.52,-2.97,2.97,2.96,2.97,3.49,3.49,3.48
104.32,0.52,-2.91,0.52,-2.91,2.91,2.90,2.90,3.43,3.43,3.43
105.37,0.53,-2.84,0.52,-2.84,2.84,2.84,2.82,3.37,3.37,3.37
106.42,0.52,-2.79,0.52,-2.78,2.78,2.78,2.75,3.30,3.31,3.31
107.48,0.52,-2.72,0.52,-2.73,2.73,2.72,2.68,3.24,3.25,3.24
108.56,0.52,-2.67,0.52,-2.67,2.67,2.66,2.61,3.19,3.19,3.19
109.64,0.52,-2.62,0.52,-2.61,2.61,2.60,2.54,3.13,3.13,3.14
110.74,0.52,-2.55,0.51,-2.56,2.56,2.55,2.47,3.07,3.07,3.07
111.85,0.51,-2.50,0.51,-2.50,2.50,2.49,2.40,3.01,3.00,3.01
112.97,0.50,-2.45,0.50,-2.44,2.44,2.44,2.33,2.94,2.94,2.95
114.10,0.49,-2.40,0.49,-2.39,2.39,2.38,2.27,2.87,2.88,2.89
115.24,0.49,-2.33,0.48,-2.33,2.33,2.33,2.20,2.82,2.81,2.82
116.39,0.48,-2.26,0.47,-2.27,2.27,2.27,2.14,2.75,2.75,2.74
117.55,0.46,-2.22,0.46,-2.21,2.21,2.22,2.08,2.67,2.68,2.68
118.73,0.45,-2.15,0.45,-2.16,2.16,2.17,2.02,2.61,2.61,2.60
119.92,0.44,-2.09,0.44,-2.10,2.10,2.12,1.96,2.54,2.54,2.53
121.12,0.43,-2.04,0.43,-2.04,2.04,2.07,1.91,2.46,2.47,2.47
122.33,0.42,-1.97,0.42,-1.97,1.97,2.02,1.85,2.39,2.39,2.39
123.55,0.41,-1.92,0.41,-1.91,1.91,1.97,1.80,2.32,2.32,2.33
124.79,0.39,-1.87,0.40,-1.85,1.85,1.92,1.75,2.24,2.25,2.26
126.03,0.38,-1.81,0.38,-1.79,1.79,1.87,1.70,2.17,2.17,2.19
127.29,0.37,-1.73,0.37,-1.73,1.73,1.82,1.65,2.10,2.10,2.10
128.57,0.36,-1.67,0.36,-1.67,1.67,1.77,1.61,2.03,2.03,2.03
129.85,0.36,-1.59,0.35,-1.61,1.61,1.73,1.56,1.97,1.96,1.95
131.15,0.34,-1.54,0.34,-1.55,1.55,1.68,1.52,1.89,1.89,1.88
132.46,0.33,-1.48,0.33,-1.50,1.50,1.63,1.48,1.83,1.82,1.81
133.79,0.32,-1.43,0.31,-1.44,1.44,1.59,1.44,1.76,1.76,1.75
135.12,0.30,-1.38,0.30,-1.39,1.39,1.54,1.40,1.69,1.69,1.68
136.48,0.29,-1.35,0.29,-1.34,1.34,1.50,1.36,1.63,1.63,1.64
137.84,0.27,-1.31,0.28,-1.30,1.30,1.45,1.33,1.57,1.57,1.58
139.22,0.26,-1.25,0.26,-1.26,1.26,1.41,1.30,1.51,1.52,1.51
140.61,0.25,-1.22,0.25,-1.22,1.22,1.37,1.26,1.46,1.47,1.47
142.02,0.24,-1.18,0.24,-1.18,1.18,1.32,1.23,1.42,1.41,1.42
143.44,0.22,-1.14,0.22,-1.14,1.14,1.28,1.20,1.36,1.36,1.36
144.87,0.21,-1.11,0.21,-1.11,1.11,1.24,1.17,1.32,1.32,1.32
146.32,0.20,-1.07,0.19,-1.08,1.08,1.19,1.14,1.27,1.27,1.27
147.78,0.18,-1.04,0.18,-1.04,1.04,1.15,1.11,1.22,1.22,1.22
149.26,0.17,-1.01,0.17,-1.01,1.01,1.11,1.08,1.18,1.17,1.18
150.75,0.15,-0.97,0.15,-0.98,0.98,1.07,1.05,1.13,1.13,1.12
152.26,0.14,-0.95,0.14,-0.94,0.94,1.03,1.02,1.08,1.08,1.09
153.78,0.12,-0.91,0.12,-0.91,0.91,0.99,1.00,1.03,1.03,1.03
155.32,0.11,-0.88,0.11,-0.88,0.88,0.94,0.97,0.99,0.98,0.99
156.88,0.09,-0.85,0.09,-0.84,0.84,0.90,0.94,0.93,0.93,0.94
158.44,0.07,-0.82,0.08,-0.81,0.81,0.86,0.91,0.88,0.88,0.89
160.03,0.06,-0.78,0.06,-0.77,0.77,0.82,0.89,0.83,0.83,0.84
161.63,0.04,-0.75,0.04,-0.74,0.74,0.78,0.86,0.78,0.78,0.79
163.24,0.03,-0.69,0.03,-0.70,0.70,0.74,0.83,0.73,0.73,0.72
164.88,0.02,-0.66,0.02,-0.66,0.66,0.70,0.80,0.68,0.68,0.68
166.53,-0.00,-0.62,-0.00,-0.63,0.63,0.66,0.77,0.63,0.63,0.62
168.19,-0.01,-0.59,-0.01,-0.59,0.59,0.62,0.74,0.58,0.57,0.58
169.87,-0.03,-0.56,-0.03,-0.55,0.55,0.58,0.71,0.52,0.52,0.53
171.57,-0.04,-0.50,-0.04,-0.51,0.51,0.55,0.68,0.47,0.47,0.46
173.29,-0.06,-0.47,-0.06,-0.48,0.48,0.51,0.65,0.42,0.42,0.41
175.02,-0.07,-0.44,-0.07,-0.44,0.44,0.47,0.62,0.37,0.37,0.37
176.77,-0.09,-0.41,-0.09,-0.40,0.40,0.43,0.59,0.31,0.32,0.32
178.54,-0.10,-0.37,-0.10,-0.37,0.37,0.39,0.56,0.27,0.27,0.27
180.32,-0.11,-0.32,-0.12,-0.33,0.33,0.36,0.53,0.22,0.22,0.21
182.13,-0.13,-0.30,-0.13,-0.30,0.30,0.32,0.50,0.17,0.17,0.17
183.95,-0.15,-0.28,-0.14,-0.26,0.26,0.28,0.47,0.11,0.12,0.13
185.79,-0.15,-0.22,-0.16,-0.23,0.23,0.25,0.43,0.07,0.07,0.07
187.65,-0.17,-0.20,-0.17,-0.19,0.19,0.21,0.40,0.02,0.02,0.03
189.52,-0.19,-0.17,-0.18,-0.16,0.16,0.17,0.37,-0.03,-0.03,-0.02
191.42,-0.19,-0.12,-0.20,-0.13,0.13,0.14,0.33,-0.07,-0.07,-0.07
193.33,-0.21,-0.09,-0.21,-0.09,0.09,0.11,0.30,-0.12,-0.12,-0.12
195.27,-0.22,-0.05,-0.22,-0.06,0.06,0.07,0.27,-0.16,-0.16,-0.17
197.22,-0.24,-0.02,-0.24,-0.03,0.03,0.04,0.23,-0.21,-0.21,-0.22
199.19,-0.25,0.00,-0.25,-0.00,0.00,0.01,0.20,-0.25,-0.25,-0.25
201.18,-0.26,0.04,-0.26,0.03,-0.03,-0.02,0.16,-0.29,-0.29,-0.30
203.19,-0.28,0.05,-0.28,0.06,-0.06,-0.05,0.13,-0.34,-0.33,-0.33
205.23,-0.29,0.08,-0.29,0.08,-0.08,-0.08,0.09,-0.37,-0.37,-0.37
207.28,-0.30,0.10,-0.30,0.11,-0.11,-0.11,0.06,-0.41,-0.41,-0.40
209.35,-0.32,0.12,-0.32,0.13,-0.13,-0.14,0.02,-0.45,-0.45,-0.44
211.44,-0.33,0.15,-0.33,0.15,-0.15,-0.17,-0.01,-0.48,-0.48,-0.48
213.56,-0.34,0.18,-0.34,0.17,-0.17,-0.19,-0.04,-0.51,-0.52,-0.52
215.69,-0.36,0.19,-0.36,0.19,-0.19,-0.21,-0.08,-0.55,-0.55,-0.55
217.85,-0.37,0.21,-0.37,0.21,-0.21,-0.24,-0.11,-0.58,-0.58,-0.58
220.03,-0.38,0.24,-0.38,0.23,-0.23,-0.26,-0.14,-0.61,-0.61,-0.62
222.23,-0.39,0.25,-0.39,0.25,-0.25,-0.28,-0.17,-0.64,-0.64,-0.64
224.45,-0.40,0.27,-0.40,0.27,-0.27,-0.30,-0.20,-0.67,-0.67,-0.67
226.70,-0.42,0.28,-0.42,0.28,-0.28,-0.31,-0.23,-0.70,-0.70,-0.70
228.96,-0.42,0.30,-0.43,0.30,-0.30,-0.33,-0.26,-0.72,-0.73,-0.72
231.25,-0.44,0.30,-0.44,0.31,-0.31,-0.35,-0.29,-0.75,-0.75,-0.74
233.57,-0.45,0.32,-0.45,0.32,-0.32,-0.36,-0.32,-0.77,-0.77,-0.77
235.90,-0.47,0.33,-0.46,0.33,-0.33,-0.37,-0.34,-0.80,-0.80,-0.80
238.26,-0.47,0.36,-0.48,0.34,-0.34,-0.38,-0.36,-0.81,-0.82,-0.83
240.64,-0.49,0.34,-0.49,0.35,-0.35,-0.39,-0.38,-0.84,-0.84,-0.83
243.05,-0.49,0.36,-0.50,0.36,-0.36,-0.40,-0.40,-0.85,-0.85,-0.85
245.48,-0.51,0.37,-0.51,0.36,-0.36,-0.41,-0.42,-0.87,-0.87,-0.88
247.93,-0.52,0.38,-0.52,0.37,-0.37,-0.41,-0.44,-0.89,-0.89,-0.90
250.41,-0.53,0.37,-0.53,0.37,-0.37,-0.42,-0.45,-0.90,-0.90,-0.90
252.92,-0.54,0.37,-0.54,0.38,-0.38,-0.42,-0.47,-0.92,-0.92,-0.91
255.45,-0.56,0.37,-0.55,0.38,-0.38,-0.43,-0.48,-0.94,-0.93,-0.93
258.00,-0.56,0.38,-0.56,0.38,-0.38,-0.43,-0.49,-0.95,-0.95,-0.94
260.58,-0.57,0.38,-0.57,0.39,-0.39,-0.43,-0.50,-0.96,-0.96,-0.95
263.19,-0.58,0.39,-0.58,0.39,-0.39,-0.43,-0.50,-0.97,-0.97,-0.97
265.82,-0.59,0.39,-0.59,0.39,-0.39,-0.43,-0.51,-0.98,-0.99,-0.98
268.48,-0.60,0.39,-0.60,0.40,-0.40,-0.43,-0.51,-1.00,-1.00,-0.99
271.16,-0.61,0.40,-0.61,0.40,-0.40,-0.43,-0.52,-1.01,-1.01,-1.01
273.87,-0.62,0.40,-0.62,0.40,-0.40,-0.43,-0.52,-1.02,-1.02,-1.02
276.61,-0.63,0.41,-0.63,0.41,-0.41,-0.42,-0.52,-1.04,-1.04,-1.04
279.38,-0.64,0.42,-0.64,0.41,-0.41,-0.42,-0.52,-1.05,-1.05,-1.06
282.17,-0.65,0.42,-0.65,0.41,-0.41,-0.42,-0.52,-1.06,-1.06,-1.07
284.99,-0.66,0.40,-0.66,0.41,-0.41,-0.41,-0.51,-1.07,-1.07,-1.06
287.84,-0.67,0.40,-0.67,0.41,-0.41,-0.41,-0.51,-1.09,-1.08,-1.07
290.72,-0.67,0.43,-0.67,0.41,-0.41,-0.41,-0.51,-1.09,-1.09,-1.10
293.63,-0.68,0.41,-0.68,0.42,-0.42,-0.40,-0.50,-1.10,-1.10,-1.09
296.57,-0.68,0.42,-0.69,0.42,-0.42,-0.40,-0.50,-1.10,-1.10,-1.10
299.53,-0.69,0.42,-0.69,0.42,-0.42,-0.40,-0.49,-1.11,-1.11,-1.11
302.53,-0.70,0.41,-0.70,0.41,-0.41,-0.39,-0.49,-1.12,-1.11,-1.11
305.55,-0.71,0.41,-0.71,0.41,-0.41,-0.39,-0.48,-1.12,-1.12,-1.12
308.61,-0.71,0.41,-0.71,0.41,-0.41,-0.38,-0.48,-1.12,-1.12,-1.12
311.69,-0.72,0.41,-0.72,0.41,-0.41,-0.38,-0.47,-1.13,-1.13,-1.13
314.81,-0.72,0.41,-0.72,0.41,-0.41,-0.37,-0.47,-1.13,-1.13,-1.13
317.96,-0.73,0.41,-0.73,0.41,-0.41,-0.37,-0.46,-1.14,-1.14,-1.14
321.14,-0.73,0.40,-0.73,0.40,-0.40,-0.37,-0.46,-1.14,-1.14,-1.13
324.35,-0.74,0.41,-0.74,0.40,-0.40,-0.36,-0.46,-1.14,-1.14,-1.15
327.59,-0.74,0.39,-0.74,0.40,-0.40,-0.36,-0.45,-1.14,-1.14,-1.13
330.87,-0.75,0.39,-0.75,0.40,-0.40,-0.36,-0.45,-1.15,-1.14,-1.14
334.18,-0.75,0.40,-0.75,0.39,-0.39,-0.35,-0.45,-1.14,-1.14,-1.15
337.52,-0.75,0.39,-0.75,0.39,-0.39,-0.35,-0.45,-1.14,-1.14,-1.14
340.90,-0.75,0.40,-0.76,0.39,-0.39,-0.35,-0.45,-1.14,-1.14,-1.15
344.30,-0.76,0.38,-0.76,0.38,-0.38,-0.34,-0.44,-1.14,-1.14,-1.14
347.75,-0.76,0.37,-0.76,0.38,-0.38,-0.34,-0.44,-1.14,-1.14,-1.13
351.23,-0.76,0.39,-0.76,0.38,-0.38,-0.34,-0.44,-1.14,-1.14,-1.15
354.74,-0.76,0.37,-0.76,0.38,-0.38,-0.34,-0.44,-1.14,-1.14,-1.13
358.28,-0.77,0.37,-0.77,0.37,-0.37,-0.34,-0.45,-1.14,-1.14,-1.14
361.87,-0.77,0.37,-0.77,0.37,-0.37,-0.33,-0.45,-1.14,-1.14,-1.14
365.49,-0.77,0.37,-0.77,0.37,-0.37,-0.33,-0.45,-1.14,-1.14,-1.14
369.14,-0.77,0.36,-0.77,0.37,-0.37,-0.33,-0.45,-1.14,-1.14,-1.13
372.83,-0.77,0.36,-0.77,0.37,-0.37,-0.33,-0.46,-1.14,-1.14,-1.13
376.56,-0.77,0.37,-0.77,0.36,-0.36,-0.33,-0.46,-1.14,-1.14,-1.14
380.33,-0.77,0.37,-0.77,0.36,-0.36,-0.33,-0.46,-1.13,-1.14,-1.14
384.13,-0.77,0.37,-0.77,0.36,-0.36,-0.33,-0.47,-1.13,-1.14,-1.14
387.97,-0.78,0.35,-0.78,0.36,-0.36,-0.33,-0.47,-1.14,-1.14,-1.13
391.85,-0.77,0.37,-0.78,0.36,-0.36,-0.33,-0.48,-1.13,-1.14,-1.14
395.77,-0.78,0.36,-0.78,0.36,-0.36,-0.33,-0.49,-1.14,-1.14,-1.14
399.73,-0.77,0.37,-0.78,0.36,-0.36,-0.33,-0.49,-1.13,-1.13,-1.14
403.72,-0.78,0.35,-0.78,0.36,-0.36,-0.32,-0.50,-1.14,-1.13,-1.13
407.76,-0.78,0.35,-0.78,0.35,-0.35,-0.32,-0.50,-1.13,-1.13,-1.13
411.84,-0.79,0.34,-0.78,0.35,-0.35,-0.33,-0.51,-1.14,-1.14,-1.13
415.96,-0.78,0.35,-0.78,0.35,-0.35,-0.33,-0.52,-1.13,-1.14,-1.13
420.12,-0.78,0.36,-0.79,0.35,-0.35,-0.33,-0.52,-1.13,-1.14,-1.14
424.32,-0.79,0.35,-0.79,0.35,-0.35,-0.33,-0.53,-1.14,-1.14,-1.14
428.56,-0.79,0.34,-0.79,0.35,-0.35,-0.33,-0.54,-1.14,-1.14,-1.13
432.85,-0.79,0.34,-0.79,0.35,-0.35,-0.33,-0.54,-1.14,-1.14,-1.13
437.18,-0.79,0.35,-0.79,0.35,-0.35,-0.33,-0.55,-1.14,-1.14,-1.14
441.55,-0.79,0.35,-0.80,0.35,-0.35,-0.33,-0.55,-1.14,-1.14,-1.14
445.96,-0.80,0.35,-0.80,0.35,-0.35,-0.33,-0.56,-1.15,-1.14,-1.15
450.42,-0.80,0.35,-0.80,0.35,-0.35,-0.33,-0.56,-1.15,-1.14,-1.15
454.93,-0.80,0.35,-0.80,0.35,-0.35,-0.33,-0.56,-1.15,-1.14,-1.15
