frequency,raw,error,smoothed,error_smoothed,equalization,parametric_eq,fixed_band_eq,equalized_raw,equalized_smoothed,target
20.00,-26.18,-20.91,-26.17,-20.93,20.93,21.54,10.20,-5.24,-5.24,-5.27
20.20,-26.09,-20.91,-26.09,-20.93,20.93,21.46,10.39,-5.16,-5.16,-5.18
20.40,-26.01,-20.91,-26.01,-20.92,20.92,21.38,10.58,-5.09,-5.09,-5.10
20.61,-25.92,-20.89,-25.92,-20.90,20.90,21.31,10.78,-5.02,-5.02,-5.03
20.81,-25.84,-20.90,-25.84,-20.89,20.89,21.23,10.98,-4.95,-4.95,-4.94
21.02,-25.75,-20.89,-25.75,-20.87,20.87,21.15,11.19,-4.88,-4.89,-4.86
21.23,-25.67,-20.87,-25.67,-20.84,20.84,21.08,11.40,-4.82,-4.82,-4.80
21.44,-25.58,-20.84,-25.58,-20.82,20.82,21.01,11.62,-4.76,-4.76,-4.74
21.66,-25.50,-20.81,-25.49,-20.79,20.79,20.93,11.84,-4.71,-4.70,-4.69
21.87,-25.41,-20.77,-25.41,-20.76,20.76,20.86,12.07,-4.65,-4.65,-4.64
22.09,-25.32,-20.73,-25.32,-20.73,20.73,20.79,12.30,-4.59,-4.59,-4.59
22.31,-25.24,-20.70,-25.23,-20.69,20.69,20.72,12.54,-4.55,-4.54,-4.54
22.54,-25.15,-20.65,-25.15,-20.65,20.65,20.66,12.79,-4.50,-4.50,-4.50
22.76,-25.06,-20.59,-25.06,-20.60,20.60,20.59,13.05,-4.46,-4.46,-4.46
22.99,-24.97,-20.53,-24.97,-20.55,20.55,20.52,13.31,-4.42,-4.42,-4.43
23.22,-24.89,-20.49,-24.88,-20.50,20.50,20.46,13.57,-4.39,-4.38,-4.39
23.45,-24.80,-20.44,-24.80,-20.45,20.45,20.39,13.85,-4.35,-4.35,-4.35
23.69,-24.71,-20.39,-24.71,-20.40,20.40,20.33,14.13,-4.31,-4.31,-4.32
23.92,-24.62,-20.34,-24.62,-20.34,20.34,20.26,14.42,-4.27,-4.27,-4.28
24.16,-24.53,-20.30,-24.53,-20.29,20.29,20.20,14.72,-4.24,-4.24,-4.23
24.40,-24.44,-20.24,-24.44,-20.23,20.23,20.13,15.03,-4.20,-4.20,-4.20
24.65,-24.35,-20.18,-24.35,-20.18,20.18,20.07,15.35,-4.17,-4.17,-4.17
24.89,-24.26,-20.12,-24.26,-20.12,20.12,20.01,15.67,-4.14,-4.14,-4.14
25.14,-24.17,-20.07,-24.16,-20.06,20.06,19.95,16.01,-4.11,-4.10,-4.10
25.39,-24.08,-20.00,-24.07,-20.00,20.00,19.89,16.36,-4.07,-4.07,-4.07
25.65,-23.98,-19.95,-23.98,-19.94,19.94,19.83,16.72,-4.03,-4.04,-4.03
25.91,-23.89,-19.87,-23.89,-19.88,19.88,19.77,17.08,-4.01,-4.01,-4.01
26.16,-23.80,-19.81,-23.80,-19.82,19.82,19.71,17.46,-3.97,-3.98,-3.98
26.43,-23.71,-19.76,-23.71,-19.76,19.76,19.65,17.85,-3.95,-3.95,-3.95
26.69,-23.62,-19.70,-23.62,-19.70,19.70,19.59,18.26,-3.92,-3.92,-3.92
26.96,-23.53,-19.64,-23.53,-19.64,19.64,19.53,18.67,-3.89,-3.89,-3.89
27.23,-23.44,-19.59,-23.44,-19.58,19.58,19.47,19.09,-3.86,-3.86,-3.85
27.50,-23.35,-19.53,-23.35,-19.52,19.52,19.41,19.52,-3.83,-3.83,-3.82
27.77,-23.26,-19.45,-23.26,-19.46,19.46,19.35,19.97,-3.79,-3.80,-3.80
28.05,-23.17,-19.40,-23.17,-19.40,19.40,19.29,20.41,-3.76,-3.77,-3.76
28.33,-23.09,-19.34,-23.08,-19.34,19.34,19.23,20.86,-3.74,-3.74,-3.75
28.62,-23.00,-19.28,-22.99,-19.28,19.28,19.17,21.31,-3.72,-3.71,-3.72
28.90,-22.91,-19.23,-22.90,-19.22,19.22,19.11,21.76,-3.68,-3.68,-3.68
29.19,-22.82,-19.16,-22.81,-19.16,19.16,19.05,22.19,-3.66,-3.65,-3.66
29.48,-22.73,-19.11,-22.72,-19.10,19.10,18.99,22.60,-3.63,-3.62,-3.61
29.78,-22.64,-19.04,-22.64,-19.04,19.04,18.94,22.99,-3.60,-3.60,-3.60
30.08,-22.55,-18.98,-22.55,-18.98,18.98,18.88,23.33,-3.57,-3.57,-3.57
30.38,-22.46,-18.92,-22.46,-18.92,18.92,18.82,23.62,-3.54,-3.54,-3.54
30.68,-22.37,-18.86,-22.37,-18.86,18.86,18.76,23.84,-3.51,-3.52,-3.51
30.99,-22.28,-18.78,-22.29,-18.80,18.80,18.70,24.00,-3.48,-3.49,-3.49
31.30,-22.20,-18.73,-22.20,-18.74,18.74,18.64,24.07,-3.46,-3.47,-3.47
31.61,-22.11,-18.67,-22.11,-18.67,18.67,18.58,24.06,-3.43,-3.44,-3.44
31.93,-22.03,-18.61,-22.03,-18.61,18.61,18.52,23.97,-3.42,-3.42,-3.42
32.24,-21.95,-18.54,-21.95,-18.55,18.55,18.46,23.81,-3.40,-3.40,-3.40
32.57,-21.87,-18.49,-21.86,-18.49,18.49,18.40,23.59,-3.38,-3.38,-3.38
32.89,-21.79,-18.44,-21.78,-18.42,18.42,18.33,23.32,-3.36,-3.36,-3.35
33.22,-21.70,-18.36,-21.70,-18.36,18.36,18.27,23.01,-3.34,-3.34,-3.33
33.55,-21.62,-18.30,-21.62,-18.30,18.30,18.21,22.67,-3.32,-3.32,-3.32
33.89,-21.54,-18.23,-21.53,-18.23,18.23,18.15,22.31,-3.31,-3.30,-3.31
34.23,-21.45,-18.17,-21.45,-18.16,18.16,18.09,21.94,-3.29,-3.29,-3.28
34.57,-21.37,-18.09,-21.37,-18.09,18.09,18.02,21.57,-3.28,-3.28,-3.28
34.92,-21.29,-18.02,-21.29,-18.02,18.02,17.96,21.20,-3.27,-3.27,-3.27
35.27,-21.21,-17.95,-21.21,-17.95,17.95,17.90,20.83,-3.26,-3.26,-3.25
35.62,-21.13,-17.87,-21.13,-17.88,17.88,17.83,20.47,-3.25,-3.25,-3.26
35.97,-21.05,-17.80,-21.05,-17.80,17.80,17.77,20.12,-3.25,-3.25,-3.25
36.33,-20.97,-17.73,-20.97,-17.72,17.72,17.70,19.78,-3.24,-3.24,-3.24
36.70,-20.89,-17.65,-20.89,-17.64,17.64,17.64,19.46,-3.24,-3.24,-3.24
37.06,-20.81,-17.56,-20.81,-17.57,17.57,17.57,19.14,-3.24,-3.24,-3.25
37.43,-20.73,-17.49,-20.73,-17.49,17.49,17.50,18.84,-3.24,-3.24,-3.24
37.81,-20.65,-17.40,-20.65,-17.40,17.40,17.44,18.55,-3.24,-3.24,-3.24
38.19,-20.57,-17.32,-20.57,-17.32,17.32,17.37,18.27,-3.25,-3.25,-3.25
38.57,-20.50,-17.25,-20.49,-17.24,17.24,17.30,18.00,-3.26,-3.25,-3.25
38.95,-20.42,-17.17,-20.42,-17.16,17.16,17.23,17.75,-3.26,-3.26,-3.25
39.34,-20.34,-17.07,-20.34,-17.08,17.08,17.16,17.51,-3.26,-3.26,-3.27
39.74,-20.26,-16.99,-20.26,-17.00,17.00,17.09,17.28,-3.26,-3.27,-3.27
40.14,-20.19,-16.91,-20.19,-16.91,16.91,17.02,17.06,-3.28,-3.27,-3.28
40.54,-20.11,-16.82,-20.11,-16.83,16.83,16.95,16.85,-3.28,-3.28,-3.29
40.94,-20.04,-16.75,-20.04,-16.75,16.75,16.88,16.65,-3.29,-3.29,-3.29
41.35,-19.97,-16.67,-19.96,-16.66,16.66,16.81,16.46,-3.30,-3.30,-3.30
41.76,-19.89,-16.58,-19.89,-16.58,16.58,16.74,16.29,-3.31,-3.31,-3.31
42.18,-19.82,-16.50,-19.82,-16.50,16.50,16.66,16.12,-3.32,-3.32,-3.31
42.60,-19.75,-16.42,-19.75,-16.41,16.41,16.59,15.96,-3.33,-3.33,-3.33
43.03,-19.67,-16.34,-19.67,-16.33,16.33,16.52,15.81,-3.34,-3.34,-3.33
43.46,-19.60,-16.25,-19.60,-16.24,16.24,16.44,15.67,-3.35,-3.36,-3.35
43.90,-19.53,-16.16,-19.53,-16.16,16.16,16.37,15.54,-3.37,-3.37,-3.37
44.33,-19.46,-16.07,-19.46,-16.08,16.08,16.29,15.42,-3.38,-3.38,-3.39
44.78,-19.39,-15.99,-19.38,-15.99,15.99,16.21,15.31,-3.40,-3.39,-3.40
45.23,-19.31,-15.89,-19.31,-15.91,15.91,16.14,15.21,-3.40,-3.40,-3.41
45.68,-19.24,-15.81,-19.23,-15.82,15.82,16.06,15.11,-3.42,-3.42,-3.43
46.13,-19.17,-15.73,-19.16,-15.73,15.73,15.98,15.02,-3.43,-3.43,-3.44
46.60,-19.09,-15.65,-19.09,-15.65,15.65,15.91,14.94,-3.44,-3.44,-3.44
47.06,-19.01,-15.56,-19.01,-15.56,15.56,15.83,14.86,-3.45,-3.45,-3.45
47.53,-18.94,-15.48,-18.94,-15.48,15.48,15.75,14.80,-3.46,-3.46,-3.46
48.01,-18.87,-15.41,-18.87,-15.39,15.39,15.67,14.74,-3.48,-3.47,-3.46
48.49,-18.79,-15.31,-18.79,-15.31,15.31,15.59,14.68,-3.48,-3.48,-3.47
48.97,-18.71,-15.22,-18.72,-15.23,15.23,15.51,14.63,-3.48,-3.49,-3.49
49.46,-18.64,-15.13,-18.64,-15.14,15.14,15.43,14.59,-3.49,-3.50,-3.51
49.96,-18.57,-15.04,-18.57,-15.06,15.06,15.35,14.55,-3.51,-3.50,-3.52
50.46,-18.50,-14.98,-18.49,-14.98,14.98,15.26,14.52,-3.52,-3.51,-3.52
50.96,-18.43,-14.91,-18.41,-14.90,14.90,15.18,14.50,-3.53,-3.52,-3.51
51.47,-18.34,-14.81,-18.34,-14.81,14.81,15.10,14.47,-3.52,-3.52,-3.53
51.99,-18.25,-14.71,-18.26,-14.73,14.73,15.02,14.45,-3.52,-3.53,-3.53
52.51,-18.18,-14.65,-18.18,-14.64,14.64,14.93,14.44,-3.54,-3.54,-3.53
53.03,-18.11,-14.57,-18.10,-14.55,14.55,14.85,14.42,-3.55,-3.55,-3.54
53.56,-18.03,-14.48,-18.02,-14.47,14.47,14.77,14.41,-3.56,-3.56,-3.55
54.10,-17.95,-14.39,-17.94,-14.38,14.38,14.68,14.40,-3.57,-3.56,-3.55
54.64,-17.87,-14.29,-17.87,-14.29,14.29,14.60,14.39,-3.58,-3.57,-3.57
55.18,-17.79,-14.20,-17.79,-14.20,14.20,14.51,14.38,-3.58,-3.58,-3.58
55.74,-17.71,-14.11,-17.71,-14.11,14.11,14.43,14.37,-3.59,-3.60,-3.60
56.29,-17.63,-14.01,-17.63,-14.02,14.02,14.34,14.36,-3.61,-3.61,-3.61
56.86,-17.56,-13.92,-17.56,-13.93,13.93,14.26,14.34,-3.63,-3.63,-3.64
57.42,-17.48,-13.82,-17.49,-13.84,13.84,14.17,14.32,-3.64,-3.65,-3.66
58.00,-17.41,-13.74,-17.41,-13.74,13.74,14.08,14.30,-3.67,-3.67,-3.67
58.58,-17.35,-13.65,-17.34,-13.65,13.65,14.00,14.27,-3.70,-3.70,-3.69
59.16,-17.28,-13.57,-17.27,-13.55,13.55,13.91,14.24,-3.73,-3.72,-3.71
59.76,-17.21,-13.47,-17.20,-13.45,13.45,13.82,14.19,-3.75,-3.75,-3.73
60.35,-17.14,-13.37,-17.14,-13.36,13.36,13.74,14.14,-3.78,-3.78,-3.77
60.96,-17.08,-13.29,-17.07,-13.26,13.26,13.65,14.09,-3.81,-3.80,-3.79
61.57,-17.01,-13.17,-17.00,-13.17,13.17,13.56,14.02,-3.84,-3.83,-3.83
62.18,-16.94,-13.07,-16.94,-13.08,13.08,13.47,13.95,-3.86,-3.86,-3.87
62.80,-16.89,-13.00,-16.88,-12.99,12.99,13.38,13.87,-3.90,-3.89,-3.89
63.43,-16.83,-12.90,-16.82,-12.91,12.91,13.30,13.78,-3.92,-3.91,-3.93
64.07,-16.76,-12.81,-16.76,-12.82,12.82,13.21,13.68,-3.93,-3.94,-3.95
64.71,-16.71,-12.73,-16.71,-12.75,12.75,13.12,13.57,-3.96,-3.96,-3.97
65.35,-16.66,-12.66,-16.66,-12.68,12.68,13.03,13.46,-3.98,-3.99,-4.00
66.01,-16.61,-12.60,-16.62,-12.61,12.61,12.94,13.33,-4.00,-4.01,-4.01
66.67,-16.57,-12.54,-16.58,-12.55,12.55,12.86,13.20,-4.02,-4.03,-4.03
67.33,-16.53,-12.49,-16.54,-12.50,12.50,12.77,13.07,-4.03,-4.04,-4.04
68.01,-16.50,-12.44,-16.51,-12.45,12.45,12.68,12.93,-4.05,-4.06,-4.06
68.69,-16.47,-12.39,-16.48,-12.41,12.41,12.59,12.78,-4.06,-4.07,-4.07
69.37,-16.45,-12.37,-16.45,-12.37,12.37,12.50,12.63,-4.08,-4.09,-4.08
70.07,-16.43,-12.33,-16.43,-12.33,12.33,12.41,12.48,-4.10,-4.10,-4.10
70.77,-16.41,-12.31,-16.41,-12.29,12.29,12.32,12.32,-4.11,-4.11,-4.10
71.48,-16.40,-12.27,-16.39,-12.26,12.26,12.24,12.17,-4.14,-4.13,-4.12
72.19,-16.39,-12.24,-16.37,-12.23,12.23,12.15,12.01,-4.16,-4.15,-4.15
72.91,-16.37,-12.21,-16.36,-12.19,12.19,12.06,11.85,-4.18,-4.17,-4.16
73.64,-16.36,-12.17,-16.34,-12.16,12.16,11.97,11.70,-4.20,-4.18,-4.18
74.38,-16.33,-12.13,-16.33,-12.13,12.13,11.88,11.54,-4.20,-4.20,-4.20
75.12,-16.31,-12.08,-16.31,-12.09,12.09,11.79,11.39,-4.22,-4.22,-4.22
75.87,-16.28,-12.04,-16.30,-12.05,12.05,11.70,11.24,-4.22,-4.24,-4.24
76.63,-16.27,-12.01,-16.28,-12.02,12.02,11.62,11.09,-4.25,-4.26,-4.26
77.40,-16.26,-11.97,-16.26,-11.98,11.98,11.53,10.94,-4.28,-4.28,-4.29
78.17,-16.25,-11.93,-16.24,-11.94,11.94,11.44,10.80,-4.31,-4.30,-4.32
78.95,-16.23,-11.91,-16.22,-11.89,11.89,11.35,10.66,-4.33,-4.32,-4.32
79.74,-16.21,-11.87,-16.19,-11.85,11.85,11.26,10.53,-4.36,-4.34,-4.34
80.54,-16.18,-11.81,-16.16,-11.81,11.81,11.18,10.40,-4.37,-4.36,-4.36
81.35,-16.15,-11.77,-16.14,-11.77,11.77,11.09,10.27,-4.38,-4.37,-4.38
82.16,-16.11,-11.72,-16.11,-11.72,11.72,11.00,10.15,-4.38,-4.38,-4.39
82.98,-16.07,-11.67,-16.08,-11.68,11.68,10.91,10.04,-4.39,-4.40,-4.40
83.81,-16.04,-11.62,-16.04,-11.63,11.63,10.83,9.93,-4.40,-4.41,-4.41
84.65,-16.00,-11.57,-16.01,-11.59,11.59,10.74,9.83,-4.41,-4.42,-4.43
85.50,-15.97,-11.54,-15.97,-11.53,11.53,10.65,9.73,-4.43,-4.43,-4.43
86.35,-15.92,-11.48,-15.92,-11.48,11.48,10.57,9.63,-4.44,-4.44,-4.44
87.22,-15.87,-11.41,-15.88,-11.42,11.42,10.48,9.55,-4.44,-4.46,-4.46
88.09,-15.83,-11.36,-15.84,-11.36,11.36,10.39,9.47,-4.46,-4.47,-4.47
88.97,-15.80,-11.32,-15.79,-11.30,11.30,10.31,9.39,-4.50,-4.49,-4.48
89.86,-15.76,-11.26,-15.74,-11.23,11.23,10.22,9.32,-4.53,-4.51,-4.50
90.76,-15.70,-11.16,-15.69,-11.15,11.15,10.14,9.25,-4.54,-4.54,-4.53
91.66,-15.64,-11.08,-15.64,-11.07,11.07,10.05,9.19,-4.57,-4.57,-4.56
92.58,-15.59,-10.99,-15.58,-10.98,10.98,9.97,9.14,-4.61,-4.60,-4.60
93.51,-15.53,-10.90,-15.52,-10.88,10.88,9.88,9.09,-4.64,-4.64,-4.63
94.44,-15.47,-10.80,-15.46,-10.78,10.78,9.80,9.04,-4.69,-4.68,-4.67
95.39,-15.41,-10.69,-15.40,-10.68,10.68,9.71,9.00,-4.73,-4.73,-4.72
96.34,-15.35,-10.58,-15.35,-10.57,10.57,9.63,8.97,-4.78,-4.78,-4.77
97.30,-15.28,-10.44,-15.29,-10.45,10.45,9.54,8.94,-4.83,-4.84,-4.84
98.28,-15.22,-10.32,-15.23,-10.33,10.33,9.46,8.91,-4.89,-4.90,-4.89
99.26,-15.16,-10.20,-15.17,-10.21,10.21,9.38,8.89,-4.95,-4.96,-4.96
100.25,-15.10,-10.07,-15.11,-10.09,10.09,9.29,8.87,-5.01,-5.03,-5.03
101.25,-15.04,-9.94,-15.06,-9.97,9.97,9.21,8.86,-5.07,-5.09,-5.10
102.27,-14.99,-9.82,-15.00,-9.84,9.84,9.13,8.85,-5.15,-5.16,-5.16
103.29,-14.96,-9.72,-14.95,-9.71,9.71,9.05,8.84,-5.24,-5.23,-5.24
104.32,-14.92,-9.62,-14.89,-9.59,9.59,8.97,8.83,-5.33,-5.30,-5.30
105.37,-14.85,-9.47,-14.83,-9.46,9.46,8.88,8.83,-5.39,-5.37,-5.38
106.42,-14.79,-9.34,-14.77,-9.33,9.33,8.80,8.82,-5.45,-5.44,-5.44
107.48,-14.73,-9.22,-14.72,-9.21,9.21,8.72,8.82,-5.52,-5.51,-5.51
108.56,-14.67,-9.09,-14.67,-9.09,9.09,8.64,8.82,-5.58,-5.58,-5.58
109.64,-14.62,-8.97,-14.61,-8.97,8.97,8.56,8.82,-5.65,-5.64,-5.65
110.74,-14.55,-8.84,-14.55,-8.84,8.84,8.48,8.82,-5.70,-5.71,-5.70
111.85,-14.48,-8.72,-14.50,-8.72,8.72,8.40,8.82,-5.75,-5.77,-5.76
112.97,-14.42,-8.58,-14.44,-8.61,8.61,8.32,8.81,-5.81,-5.83,-5.84
114.10,-14.37,-8.48,-14.38,-8.49,8.49,8.24,8.80,-5.87,-5.89,-5.89
115.24,-14.32,-8.37,-14.33,-8.38,8.38,8.17,8.79,-5.93,-5.94,-5.95
116.39,-14.30,-8.29,-14.28,-8.28,8.28,8.09,8.78,-6.02,-6.00,-6.01
117.55,-14.25,-8.19,-14.23,-8.18,8.18,8.01,8.76,-6.07,-6.05,-6.05
118.73,-14.18,-8.07,-14.18,-8.08,8.08,7.93,8.73,-6.09,-6.09,-6.11
119.92,-14.12,-7.98,-14.13,-7.99,7.99,7.86,8.71,-6.13,-6.14,-6.14
121.12,-14.07,-7.88,-14.09,-7.90,7.90,7.78,8.67,-6.16,-6.18,-6.19
122.33,-14.04,-7.81,-14.04,-7.82,7.82,7.70,8.63,-6.22,-6.23,-6.23
123.55,-14.01,-7.75,-14.00,-7.73,7.73,7.63,8.58,-6.28,-6.27,-6.26
124.79,-13.96,-7.65,-13.96,-7.65,7.65,7.55,8.53,-6.31,-6.31,-6.30
126.03,-13.91,-7.57,-13.91,-7.57,7.57,7.48,8.47,-6.34,-6.34,-6.34
127.29,-13.88,-7.50,-13.87,-7.49,7.49,7.40,8.40,-6.39,-6.38,-6.38
128.57,-13.84,-7.41,-13.82,-7.40,7.40,7.33,8.33,-6.43,-6.42,-6.43
129.85,-13.79,-7.33,-13.78,-7.32,7.32,7.25,8.24,-6.47,-6.46,-6.45
131.15,-13.73,-7.23,-13.73,-7.24,7.24,7.18,8.16,-6.49,-6.50,-6.49
132.46,-13.70,-7.16,-13.69,-7.15,7.15,7.11,8.06,-6.54,-6.53,-6.54
133.79,-13.65,-7.08,-13.64,-7.07,7.07,7.04,7.97,-6.58,-6.57,-6.57
135.12,-13.59,-6.97,-13.59,-6.98,6.98,6.96,7.86,-6.61,-6.61,-6.61
136.48,-13.55,-6.90,-13.55,-6.89,6.89,6.89,7.75,-6.66,-6.65,-6.65
137.84,-13.51,-6.82,-13.50,-6.80,6.80,6.82,7.64,-6.70,-6.70,-6.69
139.22,-13.47,-6.72,-13.46,-6.72,6.72,6.75,7.53,-6.75,-6.74,-6.75
140.61,-13.42,-6.63,-13.41,-6.63,6.63,6.68,7.41,-6.78,-6.78,-6.79
142.02,-13.35,-6.53,-13.37,-6.55,6.55,6.61,7.29,-6.80,-6.82,-6.82
143.44,-13.31,-6.45,-13.33,-6.46,6.46,6.54,7.17,-6.84,-6.86,-6.86
144.87,-13.27,-6.36,-13.29,-6.38,6.38,6.47,7.04,-6.89,-6.91,-6.91
146.32,-13.24,-6.28,-13.25,-6.30,6.30,6.40,6.92,-6.94,-6.95,-6.96
147.78,-13.21,-6.21,-13.21,-6.21,6.21,6.34,6.79,-7.00,-7.00,-6.99
149.26,-13.19,-6.15,-13.17,-6.13,6.13,6.27,6.67,-7.06,-7.05,-7.04
150.75,-13.16,-6.06,-13.14,-6.05,6.05,6.20,6.55,-7.11,-7.09,-7.10
152.26,-13.13,-5.99,-13.11,-5.97,5.97,6.13,6.42,-7.16,-7.14,-7.14
153.78,-13.08,-5.89,-13.08,-5.89,5.89,6.07,6.30,-7.19,-7.19,-7.18
155.32,-13.05,-5.81,-13.05,-5.81,5.81,6.00,6.18,-7.24,-7.24,-7.24
156.88,-13.00,-5.72,-13.02,-5.73,5.73,5.94,6.06,-7.27,-7.29,-7.28
158.44,-12.98,-5.64,-12.99,-5.65,5.65,5.87,5.95,-7.32,-7.34,-7.34
160.03,-12.95,-5.56,-12.96,-5.57,5.57,5.81,5.83,-7.38,-7.39,-7.39
161.63,-12.94,-5.49,-12.93,-5.49,5.49,5.75,5.72,-7.45,-7.44,-7.45
163.24,-12.92,-5.42,-12.90,-5.41,5.41,5.68,5.61,-7.51,-7.49,-7.49
164.88,-12.88,-5.34,-12.86,-5.33,5.33,5.62,5.51,-7.55,-7.54,-7.54
166.53,-12.85,-5.26,-12.83,-5.25,5.25,5.56,5.40,-7.60,-7.58,-7.59
168.19,-12.82,-5.19,-12.80,-5.17,5.17,5.50,5.31,-7.65,-7.63,-7.63
169.87,-12.77,-5.09,-12.77,-5.10,5.10,5.44,5.21,-7.67,-7.68,-7.67
171.57,-12.73,-5.01,-12.74,-5.02,5.02,5.38,5.12,-7.70,-7.72,-7.72
173.29,-12.69,-4.93,-12.71,-4.95,4.95,5.32,5.03,-7.74,-7.76,-7.76
175.02,-12.66,-4.86,-12.68,-4.88,4.88,5.26,4.94,-7.78,-7.80,-7.80
176.77,-12.64,-4.80,-12.64,-4.81,4.81,5.20,4.85,-7.83,-7.84,-7.84
178.54,-12.62,-4.74,-12.61,-4.74,4.74,5.14,4.77,-7.88,-7.87,-7.88
180.32,-12.60,-4.69,-12.57,-4.67,4.67,5.08,4.70,-7.93,-7.90,-7.91
182.13,-12.57,-4.63,-12.54,-4.60,4.60,5.03,4.62,-7.96,-7.93,-7.94
183.95,-12.52,-4.55,-12.50,-4.54,4.54,4.97,4.55,-7.97,-7.96,-7.96
185.79,-12.48,-4.49,-12.47,-4.49,4.49,4.92,4.48,-7.99,-7.99,-7.99
187.65,-12.44,-4.42,-12.44,-4.43,4.43,4.86,4.42,-8.01,-8.01,-8.02
189.52,-12.40,-4.37,-12.41,-4.38,4.38,4.81,4.36,-8.02,-8.03,-8.03
191.42,-12.36,-4.30,-12.38,-4.33,4.33,4.75,4.30,-8.03,-8.05,-8.05
193.33,-12.33,-4.26,-12.35,-4.28,4.28,4.70,4.24,-8.05,-8.07,-8.07
195.27,-12.31,-4.23,-12.32,-4.23,4.23,4.65,4.19,-8.08,-8.09,-8.08
197.22,-12.28,-4.18,-12.29,-4.18,4.18,4.60,4.14,-8.10,-8.11,-8.10
199.19,-12.26,-4.13,-12.26,-4.13,4.13,4.55,4.09,-8.12,-8.12,-8.13
201.18,-12.24,-4.10,-12.23,-4.09,4.09,4.50,4.05,-8.15,-8.14,-8.14
203.19,-12.22,-4.07,-12.20,-4.05,4.05,4.45,4.01,-8.17,-8.15,-8.15
205.23,-12.19,-4.02,-12.17,-4.00,4.00,4.40,3.96,-8.19,-8.17,-8.17
207.28,-12.15,-3.97,-12.15,-3.96,3.96,4.35,3.93,-8.19,-8.19,-8.18
209.35,-12.12,-3.92,-12.12,-3.92,3.92,4.30,3.89,-8.20,-8.20,-8.20
211.44,-12.09,-3.86,-12.09,-3.87,3.87,4.26,3.86,-8.22,-8.22,-8.22
213.56,-12.06,-3.83,-12.06,-3.83,3.83,4.21,3.82,-8.23,-8.23,-8.23
215.69,-12.03,-3.79,-12.03,-3.78,3.78,4.17,3.79,-8.25,-8.25,-8.24
217.85,-12.00,-3.74,-11.99,-3.73,3.73,4.12,3.77,-8.27,-8.26,-8.26
220.03,-11.98,-3.70,-11.96,-3.69,3.69,4.08,3.74,-8.29,-8.28,-8.28
222.23,-11.95,-3.65,-11.93,-3.64,3.64,4.03,3.71,-8.31,-8.29,-8.30
224.45,-11.91,-3.60,-11.90,-3.60,3.60,3.99,3.69,-8.31,-8.31,-8.31
226.70,-11.87,-3.55,-11.88,-3.55,3.55,3.95,3.66,-8.31,-8.33,-8.32
228.96,-11.85,-3.51,-11.86,-3.52,3.52,3.91,3.64,-8.33,-8.34,-8.33
231.25,-11.83,-3.48,-11.84,-3.48,3.48,3.87,3.62,-8.34,-8.36,-8.35
233.57,-11.81,-3.44,-11.83,-3.45,3.45,3.83,3.60,-8.35,-8.38,-8.37
235.90,-11.80,-3.41,-11.82,-3.43,3.43,3.80,3.57,-8.37,-8.39,-8.39
238.26,-11.79,-3.38,-11.82,-3.41,3.41,3.76,3.55,-8.38,-8.41,-8.41
240.64,-11.80,-3.37,-11.82,-3.39,3.39,3.72,3.53,-8.41,-8.42,-8.43
243.05,-11.81,-3.37,-11.81,-3.38,3.38,3.69,3.51,-8.43,-8.44,-8.44
245.48,-11.82,-3.37,-11.82,-3.37,3.37,3.65,3.49,-8.45,-8.45,-8.45
247.93,-11.83,-3.37,-11.82,-3.36,3.36,3.62,3.47,-8.47,-8.46,-8.46
250.41,-11.84,-3.36,-11.82,-3.35,3.35,3.59,3.45,-8.49,-8.46,-8.48
252.92,-11.84,-3.37,-11.81,-3.34,3.34,3.56,3.43,-8.49,-8.47,-8.47
255.45,-11.83,-3.36,-11.80,-3.34,3.34,3.53,3.41,-8.49,-8.47,-8.47
258.00,-11.82,-3.35,-11.79,-3.33,3.33,3.50,3.39,-8.49,-8.47,-8.47
260.58,-11.80,-3.33,-11.78,-3.32,3.32,3.47,3.37,-8.48,-8.46,-8.47
263.19,-11.78,-3.32,-11.76,-3.31,3.31,3.45,3.35,-8.47,-8.45,-8.45
265.82,-11.74,-3.29,-11.74,-3.29,3.29,3.42,3.34,-8.44,-8.44,-8.45
268.48,-11.72,-3.29,-11.71,-3.28,3.28,3.40,3.32,-8.44,-8.43,-8.43
271.16,-11.68,-3.26,-11.68,-3.26,3.26,3.37,3.30,-8.42,-8.42,-8.42
273.87,-11.64,-3.23,-11.64,-3.24,3.24,3.35,3.28,-8.40,-8.41,-8.40
276.61,-11.61,-3.23,-11.61,-3.22,3.22,3.33,3.26,-8.39,-8.39,-8.38
279.38,-11.58,-3.20,-11.58,-3.20,3.20,3.31,3.25,-8.38,-8.38,-8.38
282.17,-11.55,-3.19,-11.55,-3.19,3.19,3.29,3.23,-8.36,-8.36,-8.36
284.99,-11.53,-3.18,-11.53,-3.18,3.18,3.28,3.22,-8.35,-8.35,-8.35
287.84,-11.50,-3.16,-11.50,-3.17,3.17,3.26,3.20,-8.33,-8.33,-8.33
290.72,-11.48,-3.17,-11.49,-3.17,3.17,3.25,3.19,-8.30,-8.31,-8.31
293.63,-11.46,-3.15,-11.48,-3.18,3.18,3.24,3.18,-8.28,-8.30,-8.30
296.57,-11.45,-3.17,-11.47,-3.19,3.19,3.23,3.17,-8.25,-8.28,-8.28
299.53,-11.46,-3.19,-11.47,-3.21,3.21,3.22,3.16,-8.25,-8.26,-8.26
302.53,-11.47,-3.21,-11.48,-3.24,3.24,3.21,3.16,-8.23,-8.24,-8.26
305.55,-11.49,-3.27,-11.49,-3.27,3.27,3.20,3.15,-8.22,-8.22,-8.22
308.61,-11.51,-3.30,-11.51,-3.31,3.31,3.20,3.15,-8.20,-8.20,-8.21
311.69,-11.54,-3.36,-11.53,-3.35,3.35,3.20,3.15,-8.19,-8.18,-8.18
314.81,-11.55,-3.40,-11.56,-3.40,3.40,3.20,3.15,-8.15,-8.16,-8.15
317.96,-11.59,-3.46,-11.59,-3.45,3.45,3.20,3.16,-8.14,-8.14,-8.13
321.14,-11.62,-3.51,-11.62,-3.50,3.50,3.20,3.16,-8.11,-8.12,-8.11
324.35,-11.65,-3.55,-11.65,-3.56,3.56,3.21,3.17,-8.09,-8.09,-8.10
327.59,-11.69,-3.62,-11.69,-3.62,3.62,3.21,3.18,-8.07,-8.07,-8.07
330.87,-11.72,-3.66,-11.72,-3.67,3.67,3.22,3.20,-8.05,-8.05,-8.05
334.18,-11.75,-3.72,-11.74,-3.72,3.72,3.23,3.21,-8.03,-8.02,-8.03
337.52,-11.79,-3.78,-11.76,-3.76,3.76,3.25,3.23,-8.02,-8.00,-8.01
340.90,-11.80,-3.82,-11.78,-3.80,3.80,3.26,3.25,-7.99,-7.98,-7.98
344.30,-11.83,-3.87,-11.80,-3.84,3.84,3.28,3.27,-7.98,-7.96,-7.95
347.75,-11.84,-3.90,-11.81,-3.88,3.88,3.30,3.30,-7.96,-7.93,-7.94
351.23,-11.84,-3.93,-11.82,-3.91,3.91,3.32,3.33,-7.92,-7.91,-7.91
354.74,-11.84,-3.96,-11.83,-3.94,3.94,3.34,3.36,-7.89,-7.89,-7.88
358.28,-11.83,-3.96,-11.83,-3.97,3.97,3.37,3.39,-7.86,-7.86,-7.87
