frequency,raw,error,smoothed,error_smoothed,equalization,parametric_eq,fixed_band_eq,equalized_raw,equalized_smoothed,target
20.00,-0.75,-4.37,-0.77,-4.43,4.43,3.90,1.81,3.68,3.65,3.63
20.20,-0.73,-4.40,-0.74,-4.43,4.43,3.95,1.86,3.71,3.69,3.67
20.40,-0.71,-4.43,-0.71,-4.44,4.44,3.99,1.92,3.73,3.73,3.72
20.61,-0.68,-4.43,-0.68,-4.44,4.44,4.03,1.97,3.76,3.76,3.75
20.81,-0.66,-4.46,-0.65,-4.44,4.44,4.07,2.03,3.78,3.79,3.80
21.02,-0.64,-4.48,-0.62,-4.44,4.44,4.11,2.09,3.80,3.82,3.84
21.23,-0.62,-4.48,-0.60,-4.44,4.44,4.14,2.15,3.82,3.84,3.86
21.44,-0.60,-4.48,-0.57,-4.43,4.43,4.17,2.21,3.84,3.86,3.88
21.66,-0.57,-4.47,-0.54,-4.43,4.43,4.21,2.28,3.86,3.88,3.90
21.87,-0.55,-4.46,-0.52,-4.42,4.42,4.24,2.34,3.87,3.90,3.91
22.09,-0.52,-4.45,-0.49,-4.41,4.41,4.26,2.41,3.89,3.92,3.93
22.31,-0.48,-4.41,-0.47,-4.40,4.40,4.29,2.48,3.92,3.93,3.94
22.54,-0.43,-4.37,-0.44,-4.38,4.38,4.31,2.56,3.95,3.94,3.94
22.76,-0.39,-4.32,-0.42,-4.35,4.35,4.33,2.63,3.97,3.94,3.94
22.99,-0.34,-4.26,-0.39,-4.33,4.33,4.35,2.70,3.99,3.94,3.93
23.22,-0.34,-4.26,-0.37,-4.31,4.31,4.36,2.78,3.97,3.94,3.93
23.45,-0.34,-4.26,-0.34,-4.28,4.28,4.38,2.86,3.95,3.94,3.93
23.69,-0.34,-4.27,-0.32,-4.26,4.26,4.39,2.94,3.93,3.94,3.93
23.92,-0.34,-4.27,-0.30,-4.25,4.25,4.40,3.02,3.91,3.94,3.93
24.16,-0.32,-4.26,-0.29,-4.23,4.23,4.40,3.11,3.91,3.94,3.94
24.40,-0.30,-4.25,-0.28,-4.22,4.22,4.41,3.19,3.92,3.94,3.95
24.65,-0.27,-4.21,-0.27,-4.21,4.21,4.41,3.28,3.94,3.94,3.94
24.89,-0.25,-4.19,-0.27,-4.21,4.21,4.40,3.37,3.96,3.94,3.94
25.14,-0.24,-4.18,-0.26,-4.20,4.20,4.40,3.45,3.97,3.94,3.94
25.39,-0.24,-4.18,-0.26,-4.20,4.20,4.39,3.54,3.96,3.94,3.95
25.65,-0.24,-4.18,-0.25,-4.19,4.19,4.39,3.63,3.96,3.94,3.95
25.91,-0.24,-4.17,-0.24,-4.18,4.18,4.38,3.72,3.95,3.94,3.94
26.16,-0.24,-4.17,-0.23,-4.17,4.17,4.36,3.81,3.94,3.94,3.94
26.43,-0.24,-4.17,-0.22,-4.16,4.16,4.35,3.90,3.92,3.94,3.93
26.69,-0.24,-4.17,-0.21,-4.15,4.15,4.33,3.98,3.91,3.94,3.93
26.96,-0.24,-4.18,-0.20,-4.14,4.14,4.31,4.07,3.90,3.93,3.94
27.23,-0.22,-4.16,-0.19,-4.13,4.13,4.29,4.15,3.91,3.93,3.94
27.50,-0.19,-4.12,-0.18,-4.11,4.11,4.27,4.24,3.93,3.93,3.94
27.77,-0.16,-4.08,-0.17,-4.10,4.10,4.25,4.31,3.94,3.93,3.93
28.05,-0.14,-4.06,-0.15,-4.08,4.08,4.22,4.39,3.94,3.93,3.93
28.33,-0.13,-4.04,-0.14,-4.06,4.06,4.20,4.46,3.93,3.92,3.91
28.62,-0.12,-4.03,-0.12,-4.04,4.04,4.17,4.53,3.93,3.92,3.91
28.90,-0.11,-4.03,-0.10,-4.02,4.02,4.15,4.60,3.92,3.92,3.92
29.19,-0.10,-4.00,-0.09,-4.01,4.01,4.12,4.66,3.91,3.92,3.91
29.48,-0.08,-4.00,-0.07,-3.99,3.99,4.09,4.71,3.91,3.92,3.93
29.78,-0.06,-3.97,-0.06,-3.98,3.98,4.06,4.76,3.92,3.91,3.91
30.08,-0.04,-3.96,-0.06,-3.97,3.97,4.03,4.80,3.93,3.91,3.92
30.38,-0.04,-3.95,-0.05,-3.96,3.96,4.00,4.84,3.93,3.91,3.91
30.68,-0.04,-3.94,-0.05,-3.96,3.96,3.97,4.87,3.92,3.91,3.91
30.99,-0.04,-3.94,-0.04,-3.95,3.95,3.94,4.89,3.92,3.91,3.91
31.30,-0.04,-3.94,-0.04,-3.94,3.94,3.91,4.91,3.91,3.90,3.90
31.61,-0.04,-3.94,-0.03,-3.93,3.93,3.88,4.92,3.90,3.90,3.90
31.93,-0.04,-3.93,-0.02,-3.92,3.92,3.85,4.92,3.88,3.90,3.90
32.24,-0.04,-3.92,-0.01,-3.90,3.90,3.82,4.92,3.87,3.89,3.89
32.57,-0.04,-3.93,-0.00,-3.89,3.89,3.79,4.91,3.85,3.89,3.89
32.89,-0.04,-3.93,0.00,-3.88,3.88,3.76,4.89,3.84,3.88,3.89
33.22,-0.02,-3.89,0.01,-3.87,3.87,3.74,4.87,3.85,3.88,3.88
33.55,0.02,-3.85,0.02,-3.86,3.86,3.71,4.84,3.88,3.87,3.87
33.89,0.05,-3.81,0.02,-3.85,3.85,3.68,4.81,3.90,3.87,3.86
34.23,0.06,-3.80,0.03,-3.84,3.84,3.66,4.77,3.90,3.86,3.87
34.57,0.06,-3.79,0.03,-3.83,3.83,3.64,4.73,3.89,3.86,3.85
34.92,0.06,-3.79,0.03,-3.83,3.83,3.61,4.68,3.89,3.85,3.85
35.27,0.04,-3.80,0.02,-3.82,3.82,3.59,4.63,3.87,3.85,3.85
35.62,0.02,-3.82,0.02,-3.82,3.82,3.57,4.58,3.85,3.84,3.84
35.97,0.00,-3.84,0.02,-3.83,3.83,3.55,4.53,3.83,3.84,3.84
36.33,-0.01,-3.85,0.01,-3.83,3.83,3.54,4.47,3.82,3.84,3.84
36.70,-0.03,-3.86,-0.00,-3.84,3.84,3.52,4.42,3.81,3.84,3.83
37.06,-0.04,-3.86,-0.01,-3.85,3.85,3.51,4.36,3.81,3.84,3.83
37.43,-0.04,-3.88,-0.02,-3.86,3.86,3.50,4.30,3.82,3.84,3.84
37.81,-0.04,-3.87,-0.03,-3.86,3.86,3.49,4.25,3.83,3.83,3.84
38.19,-0.04,-3.87,-0.04,-3.87,3.87,3.48,4.19,3.83,3.83,3.83
38.57,-0.04,-3.87,-0.04,-3.87,3.87,3.47,4.13,3.84,3.83,3.84
38.95,-0.04,-3.88,-0.04,-3.87,3.87,3.47,4.08,3.84,3.83,3.84
39.34,-0.04,-3.87,-0.04,-3.87,3.87,3.47,4.02,3.83,3.83,3.83
39.74,-0.04,-3.86,-0.03,-3.86,3.86,3.47,3.97,3.83,3.83,3.83
40.14,-0.04,-3.87,-0.03,-3.86,3.86,3.47,3.92,3.82,3.83,3.83
40.54,-0.04,-3.86,-0.03,-3.86,3.86,3.47,3.87,3.82,3.82,3.83
40.94,-0.04,-3.85,-0.04,-3.86,3.86,3.48,3.83,3.82,3.82,3.82
41.35,-0.04,-3.85,-0.04,-3.86,3.86,3.49,3.78,3.82,3.81,3.81
41.76,-0.04,-3.84,-0.05,-3.85,3.85,3.50,3.74,3.82,3.80,3.80
42.18,-0.04,-3.84,-0.06,-3.85,3.85,3.51,3.70,3.82,3.80,3.81
42.60,-0.04,-3.83,-0.07,-3.85,3.85,3.52,3.66,3.81,3.78,3.79
43.03,-0.04,-3.82,-0.08,-3.85,3.85,3.54,3.63,3.81,3.77,3.78
43.46,-0.09,-3.86,-0.09,-3.84,3.84,3.55,3.60,3.76,3.76,3.77
43.90,-0.13,-3.87,-0.09,-3.84,3.84,3.57,3.57,3.71,3.74,3.74
44.33,-0.14,-3.86,-0.10,-3.84,3.84,3.59,3.54,3.70,3.73,3.72
44.78,-0.14,-3.84,-0.11,-3.83,3.83,3.62,3.52,3.69,3.72,3.71
45.23,-0.14,-3.83,-0.12,-3.82,3.82,3.64,3.50,3.68,3.70,3.70
45.68,-0.14,-3.81,-0.12,-3.81,3.81,3.66,3.48,3.67,3.68,3.68
46.13,-0.14,-3.79,-0.13,-3.80,3.80,3.69,3.46,3.66,3.67,3.66
46.60,-0.14,-3.79,-0.13,-3.78,3.78,3.71,3.45,3.65,3.65,3.65
47.06,-0.14,-3.77,-0.14,-3.77,3.77,3.74,3.44,3.64,3.63,3.63
47.53,-0.14,-3.76,-0.14,-3.76,3.76,3.77,3.43,3.63,3.62,3.62
48.01,-0.14,-3.76,-0.15,-3.75,3.75,3.79,3.43,3.61,3.60,3.62
48.49,-0.14,-3.73,-0.15,-3.74,3.74,3.82,3.43,3.60,3.59,3.60
48.97,-0.14,-3.71,-0.16,-3.73,3.73,3.84,3.43,3.59,3.57,3.57
49.46,-0.14,-3.69,-0.17,-3.72,3.72,3.86,3.43,3.59,3.55,3.55
49.96,-0.14,-3.66,-0.18,-3.72,3.72,3.88,3.43,3.58,3.54,3.53
50.46,-0.19,-3.71,-0.19,-3.71,3.71,3.90,3.43,3.52,3.52,3.52
50.96,-0.24,-3.74,-0.20,-3.70,3.70,3.91,3.44,3.47,3.51,3.51
51.47,-0.24,-3.72,-0.21,-3.70,3.70,3.92,3.45,3.46,3.49,3.48
51.99,-0.24,-3.70,-0.21,-3.69,3.69,3.93,3.46,3.45,3.48,3.47
52.51,-0.24,-3.70,-0.22,-3.68,3.68,3.93,3.47,3.45,3.46,3.46
53.03,-0.24,-3.69,-0.23,-3.67,3.67,3.93,3.48,3.44,3.44,3.45
53.56,-0.24,-3.67,-0.24,-3.67,3.67,3.92,3.49,3.43,3.43,3.43
54.10,-0.24,-3.65,-0.24,-3.65,3.65,3.91,3.50,3.42,3.42,3.42
54.64,-0.24,-3.63,-0.24,-3.64,3.64,3.90,3.51,3.40,3.40,3.40
55.18,-0.24,-3.62,-0.24,-3.62,3.62,3.87,3.52,3.39,3.39,3.39
55.74,-0.24,-3.60,-0.24,-3.61,3.61,3.85,3.53,3.37,3.37,3.37
56.29,-0.24,-3.59,-0.23,-3.59,3.59,3.81,3.53,3.35,3.36,3.36
56.86,-0.24,-3.57,-0.24,-3.57,3.57,3.78,3.54,3.34,3.34,3.34
57.42,-0.24,-3.54,-0.24,-3.56,3.56,3.73,3.55,3.32,3.32,3.30
58.00,-0.24,-3.53,-0.25,-3.54,3.54,3.69,3.55,3.31,3.29,3.29
58.58,-0.24,-3.51,-0.25,-3.52,3.52,3.63,3.55,3.29,3.27,3.28
59.16,-0.24,-3.49,-0.26,-3.50,3.50,3.58,3.54,3.26,3.24,3.25
59.76,-0.24,-3.46,-0.27,-3.47,3.47,3.52,3.54,3.24,3.21,3.23
60.35,-0.28,-3.46,-0.28,-3.45,3.45,3.45,3.53,3.17,3.17,3.18
60.96,-0.34,-3.48,-0.29,-3.42,3.42,3.39,3.52,3.09,3.13,3.14
61.57,-0.34,-3.43,-0.30,-3.40,3.40,3.32,3.50,3.06,3.09,3.10
62.18,-0.34,-3.38,-0.32,-3.37,3.37,3.25,3.48,3.03,3.05,3.05
62.80,-0.34,-3.34,-0.34,-3.34,3.34,3.17,3.46,3.00,3.00,3.00
63.43,-0.34,-3.29,-0.35,-3.31,3.31,3.10,3.43,2.97,2.96,2.95
64.07,-0.34,-3.23,-0.37,-3.27,3.27,3.02,3.40,2.94,2.91,2.90
64.71,-0.35,-3.19,-0.38,-3.24,3.24,2.95,3.37,2.89,2.86,2.85
65.35,-0.38,-3.18,-0.39,-3.20,3.20,2.87,3.33,2.82,2.80,2.80
66.01,-0.44,-3.19,-0.40,-3.16,3.16,2.80,3.29,2.72,2.75,2.75
66.67,-0.44,-3.13,-0.41,-3.11,3.11,2.72,3.25,2.67,2.70,2.70
67.33,-0.44,-3.08,-0.42,-3.06,3.06,2.64,3.20,2.63,2.64,2.64
68.01,-0.44,-3.03,-0.42,-3.01,3.01,2.57,3.15,2.58,2.59,2.59
68.69,-0.44,-2.97,-0.43,-2.96,2.96,2.49,3.10,2.53,2.53,2.54
69.37,-0.44,-2.91,-0.44,-2.91,2.91,2.42,3.05,2.48,2.48,2.48
70.07,-0.44,-2.85,-0.44,-2.86,2.86,2.35,2.99,2.42,2.42,2.42
70.77,-0.44,-2.80,-0.44,-2.80,2.80,2.28,2.93,2.36,2.36,2.37
71.48,-0.44,-2.74,-0.44,-2.74,2.74,2.21,2.88,2.30,2.30,2.31
72.19,-0.44,-2.67,-0.44,-2.67,2.67,2.14,2.82,2.24,2.23,2.23
72.91,-0.44,-2.61,-0.43,-2.60,2.60,2.07,2.75,2.17,2.17,2.17
73.64,-0.44,-2.54,-0.43,-2.53,2.53,2.01,2.69,2.10,2.11,2.11
74.38,-0.44,-2.48,-0.42,-2.47,2.47,1.95,2.63,2.03,2.04,2.04
75.12,-0.44,-2.41,-0.42,-2.40,2.40,1.88,2.57,1.97,1.98,1.98
75.87,-0.44,-2.35,-0.43,-2.35,2.35,1.82,2.50,1.91,1.92,1.91
76.63,-0.44,-2.29,-0.44,-2.29,2.29,1.77,2.44,1.86,1.86,1.85
77.40,-0.44,-2.23,-0.45,-2.24,2.24,1.71,2.38,1.81,1.80,1.79
78.17,-0.44,-2.16,-0.46,-2.20,2.20,1.65,2.32,1.76,1.74,1.72
78.95,-0.44,-2.12,-0.48,-2.16,2.16,1.60,2.26,1.72,1.68,1.68
79.74,-0.44,-2.06,-0.50,-2.12,2.12,1.55,2.20,1.68,1.62,1.62
80.54,-0.48,-2.04,-0.51,-2.08,2.08,1.50,2.14,1.60,1.56,1.57
81.35,-0.53,-2.03,-0.53,-2.04,2.04,1.45,2.08,1.51,1.51,1.50
82.16,-0.59,-2.03,-0.55,-2.00,2.00,1.40,2.02,1.41,1.45,1.45
82.98,-0.65,-2.05,-0.57,-1.96,1.96,1.35,1.96,1.32,1.39,1.40
83.81,-0.65,-1.98,-0.59,-1.92,1.92,1.31,1.91,1.28,1.34,1.34
84.65,-0.65,-1.92,-0.60,-1.88,1.88,1.26,1.85,1.24,1.28,1.28
85.50,-0.65,-1.88,-0.62,-1.84,1.84,1.22,1.80,1.20,1.22,1.23
86.35,-0.64,-1.81,-0.64,-1.81,1.81,1.18,1.75,1.17,1.17,1.17
87.22,-0.64,-1.75,-0.66,-1.77,1.77,1.14,1.70,1.13,1.11,1.11
88.09,-0.64,-1.69,-0.68,-1.73,1.73,1.10,1.65,1.09,1.05,1.05
88.97,-0.66,-1.65,-0.70,-1.69,1.69,1.06,1.60,1.04,0.99,0.99
89.86,-0.73,-1.65,-0.73,-1.66,1.66,1.02,1.56,0.93,0.93,0.93
90.76,-0.74,-1.60,-0.75,-1.62,1.62,0.99,1.51,0.89,0.87,0.87
91.66,-0.74,-1.55,-0.79,-1.59,1.59,0.95,1.47,0.86,0.81,0.81
92.58,-0.79,-1.53,-0.82,-1.57,1.57,0.92,1.42,0.79,0.75,0.74
93.51,-0.85,-1.53,-0.86,-1.55,1.55,0.88,1.38,0.71,0.69,0.68
94.44,-0.91,-1.54,-0.90,-1.53,1.53,0.85,1.34,0.62,0.63,0.63
95.39,-0.94,-1.51,-0.93,-1.50,1.50,0.82,1.30,0.56,0.57,0.57
96.34,-0.97,-1.47,-0.96,-1.47,1.47,0.79,1.26,0.50,0.51,0.51
97.30,-1.05,-1.50,-0.99,-1.44,1.44,0.76,1.23,0.39,0.45,0.45
98.28,-1.06,-1.45,-1.01,-1.41,1.41,0.73,1.19,0.35,0.40,0.40
99.26,-1.07,-1.41,-1.02,-1.36,1.36,0.70,1.16,0.30,0.34,0.34
100.25,-1.09,-1.37,-1.03,-1.31,1.31,0.67,1.12,0.23,0.28,0.28
101.25,-1.08,-1.30,-1.03,-1.26,1.26,0.64,1.09,0.18,0.22,0.22
102.27,-1.01,-1.17,-1.03,-1.19,1.19,0.62,1.05,0.19,0.17,0.17
103.29,-0.97,-1.07,-1.02,-1.12,1.12,0.59,1.02,0.16,0.11,0.10
104.32,-0.95,-1.00,-1.00,-1.05,1.05,0.56,0.99,0.10,0.05,0.05
105.37,-0.98,-0.97,-0.98,-0.97,0.97,0.54,0.96,-0.01,-0.01,-0.01
106.42,-1.00,-0.93,-0.96,-0.89,0.89,0.51,0.93,-0.11,-0.07,-0.06
107.48,-1.01,-0.87,-0.94,-0.80,0.80,0.49,0.90,-0.20,-0.14,-0.13
108.56,-0.92,-0.72,-0.93,-0.73,0.73,0.46,0.87,-0.19,-0.20,-0.20
109.64,-0.87,-0.61,-0.92,-0.66,0.66,0.44,0.84,-0.21,-0.26,-0.26
110.74,-0.89,-0.56,-0.91,-0.59,0.59,0.41,0.81,-0.29,-0.32,-0.32
111.85,-0.91,-0.54,-0.91,-0.53,0.53,0.39,0.79,-0.37,-0.38,-0.37
112.97,-0.92,-0.47,-0.92,-0.48,0.48,0.37,0.76,-0.44,-0.44,-0.45
114.10,-0.92,-0.41,-0.93,-0.43,0.43,0.34,0.73,-0.48,-0.50,-0.50
115.24,-0.92,-0.36,-0.95,-0.39,0.39,0.32,0.70,-0.52,-0.56,-0.56
116.39,-0.94,-0.31,-0.97,-0.36,0.36,0.30,0.67,-0.58,-0.61,-0.63
117.55,-0.99,-0.31,-0.99,-0.32,0.32,0.28,0.64,-0.66,-0.66,-0.67
118.73,-1.08,-0.35,-1.02,-0.30,0.30,0.25,0.61,-0.77,-0.72,-0.73
119.92,-1.11,-0.34,-1.05,-0.29,0.29,0.23,0.59,-0.82,-0.76,-0.76
121.12,-1.10,-0.28,-1.09,-0.28,0.28,0.21,0.56,-0.81,-0.81,-0.82
122.33,-1.13,-0.27,-1.13,-0.28,0.28,0.19,0.53,-0.85,-0.85,-0.86
123.55,-1.17,-0.27,-1.18,-0.28,0.28,0.16,0.50,-0.88,-0.90,-0.89
124.79,-1.23,-0.29,-1.23,-0.29,0.29,0.14,0.47,-0.94,-0.94,-0.93
126.03,-1.31,-0.33,-1.28,-0.30,0.30,0.12,0.44,-1.00,-0.98,-0.97
127.29,-1.34,-0.33,-1.34,-0.33,0.33,0.10,0.41,-1.01,-1.02,-1.01
128.57,-1.37,-0.31,-1.42,-0.36,0.36,0.08,0.37,-1.01,-1.06,-1.06
129.85,-1.46,-0.36,-1.49,-0.40,0.40,0.05,0.34,-1.06,-1.09,-1.09
131.15,-1.52,-0.38,-1.56,-0.43,0.43,0.03,0.31,-1.08,-1.13,-1.13
132.46,-1.58,-0.41,-1.65,-0.48,0.48,0.01,0.27,-1.10,-1.17,-1.17
133.79,-1.72,-0.51,-1.74,-0.53,0.53,-0.01,0.24,-1.19,-1.21,-1.21
135.12,-1.81,-0.55,-1.83,-0.58,0.58,-0.04,0.21,-1.22,-1.24,-1.25
136.48,-1.87,-0.59,-1.90,-0.62,0.62,-0.06,0.17,-1.24,-1.28,-1.28
137.84,-1.94,-0.61,-1.97,-0.65,0.65,-0.08,0.13,-1.29,-1.31,-1.32
139.22,-2.08,-0.71,-2.02,-0.67,0.67,-0.11,0.10,-1.41,-1.35,-1.36
140.61,-2.18,-0.77,-2.06,-0.67,0.67,-0.13,0.06,-1.50,-1.39,-1.41
142.02,-2.17,-0.74,-2.09,-0.66,0.66,-0.15,0.02,-1.51,-1.43,-1.43
143.44,-2.12,-0.65,-2.09,-0.61,0.61,-0.18,-0.02,-1.50,-1.47,-1.47
144.87,-2.14,-0.62,-2.05,-0.53,0.53,-0.21,-0.05,-1.60,-1.52,-1.52
146.32,-2.16,-0.59,-2.00,-0.43,0.43,-0.23,-0.09,-1.73,-1.57,-1.57
147.78,-2.06,-0.45,-1.93,-0.30,0.30,-0.26,-0.13,-1.76,-1.63,-1.60
149.26,-1.89,-0.23,-1.85,-0.15,0.15,-0.28,-0.17,-1.73,-1.69,-1.66
150.75,-1.76,-0.02,-1.76,-0.00,0.00,-0.31,-0.22,-1.76,-1.76,-1.74
152.26,-1.73,0.08,-1.67,0.16,-0.16,-0.34,-0.26,-1.88,-1.83,-1.81
153.78,-1.62,0.27,-1.59,0.31,-0.31,-0.37,-0.30,-1.93,-1.90,-1.88
155.32,-1.43,0.54,-1.52,0.46,-0.46,-0.40,-0.34,-1.89,-1.98,-1.97
156.88,-1.31,0.74,-1.47,0.58,-0.58,-0.43,-0.39,-1.89,-2.06,-2.05
158.44,-1.24,0.90,-1.46,0.67,-0.67,-0.46,-0.43,-1.91,-2.13,-2.14
160.03,-1.22,1.01,-1.47,0.73,-0.73,-0.50,-0.48,-1.95,-2.21,-2.23
161.63,-1.37,0.94,-1.51,0.77,-0.77,-0.53,-0.52,-2.14,-2.28,-2.31
163.24,-1.46,0.92,-1.56,0.79,-0.79,-0.57,-0.57,-2.25,-2.35,-2.37
164.88,-1.56,0.87,-1.63,0.78,-0.78,-0.60,-0.61,-2.34,-2.41,-2.43
166.53,-1.68,0.81,-1.71,0.76,-0.76,-0.64,-0.66,-2.44,-2.47,-2.49
168.19,-1.82,0.71,-1.78,0.73,-0.73,-0.68,-0.71,-2.55,-2.51,-2.53
169.87,-1.99,0.59,-1.85,0.70,-0.70,-0.72,-0.76,-2.68,-2.55,-2.57
171.57,-2.10,0.50,-1.92,0.67,-0.67,-0.77,-0.81,-2.76,-2.58,-2.60
173.29,-2.16,0.46,-1.96,0.65,-0.65,-0.81,-0.86,-2.80,-2.61,-2.62
175.02,-2.21,0.42,-1.99,0.64,-0.64,-0.86,-0.91,-2.85,-2.63,-2.63
176.77,-2.11,0.54,-1.98,0.67,-0.67,-0.91,-0.96,-2.77,-2.64,-2.65
178.54,-2.00,0.66,-1.94,0.72,-0.72,-0.96,-1.02,-2.72,-2.66,-2.66
180.32,-1.86,0.80,-1.87,0.80,-0.80,-1.01,-1.07,-2.66,-2.67,-2.66
182.13,-1.75,0.91,-1.78,0.90,-0.90,-1.07,-1.13,-2.64,-2.68,-2.66
183.95,-1.67,1.01,-1.69,1.01,-1.01,-1.13,-1.18,-2.67,-2.69,-2.67
185.79,-1.54,1.14,-1.57,1.13,-1.13,-1.19,-1.24,-2.67,-2.70,-2.68
187.65,-1.38,1.33,-1.45,1.27,-1.27,-1.25,-1.29,-2.65,-2.72,-2.70
189.52,-1.24,1.48,-1.32,1.41,-1.41,-1.32,-1.35,-2.65,-2.73,-2.72
191.42,-1.16,1.59,-1.19,1.56,-1.56,-1.39,-1.41,-2.71,-2.75,-2.74
193.33,-1.04,1.73,-1.07,1.69,-1.69,-1.46,-1.47,-2.73,-2.77,-2.77
195.27,-0.91,1.88,-0.97,1.82,-1.82,-1.54,-1.53,-2.72,-2.79,-2.79
197.22,-0.85,1.96,-0.88,1.93,-1.93,-1.62,-1.59,-2.78,-2.81,-2.81
199.19,-0.84,2.01,-0.80,2.04,-2.04,-1.70,-1.65,-2.87,-2.83,-2.84
201.18,-0.76,2.11,-0.72,2.14,-2.14,-1.79,-1.71,-2.90,-2.86,-2.86
203.19,-0.66,2.23,-0.64,2.24,-2.24,-1.87,-1.77,-2.90,-2.88,-2.88
205.23,-0.56,2.35,-0.57,2.33,-2.33,-1.96,-1.83,-2.89,-2.91,-2.91
207.28,-0.52,2.40,-0.52,2.41,-2.41,-2.06,-1.89,-2.93,-2.93,-2.92
209.35,-0.45,2.50,-0.47,2.49,-2.49,-2.15,-1.95,-2.93,-2.95,-2.95
211.44,-0.43,2.56,-0.42,2.55,-2.55,-2.24,-2.01,-2.98,-2.97,-2.98
213.56,-0.42,2.57,-0.38,2.62,-2.62,-2.33,-2.07,-3.03,-2.99,-2.99
215.69,-0.35,2.66,-0.34,2.67,-2.67,-2.43,-2.12,-3.02,-3.01,-3.01
217.85,-0.30,2.73,-0.31,2.71,-2.71,-2.51,-2.18,-3.01,-3.02,-3.02
220.03,-0.26,2.78,-0.28,2.75,-2.75,-2.60,-2.23,-3.01,-3.04,-3.04
222.23,-0.24,2.83,-0.26,2.78,-2.78,-2.68,-2.29,-3.02,-3.04,-3.06
224.45,-0.24,2.82,-0.25,2.80,-2.80,-2.75,-2.34,-3.04,-3.05,-3.06
226.70,-0.24,2.82,-0.24,2.81,-2.81,-2.81,-2.39,-3.05,-3.05,-3.06
228.96,-0.24,2.82,-0.24,2.81,-2.81,-2.87,-2.43,-3.05,-3.05,-3.05
231.25,-0.23,2.82,-0.23,2.81,-2.81,-2.91,-2.48,-3.04,-3.05,-3.04
233.57,-0.22,2.82,-0.23,2.81,-2.81,-2.94,-2.52,-3.02,-3.04,-3.04
235.90,-0.25,2.78,-0.22,2.80,-2.80,-2.96,-2.55,-3.05,-3.02,-3.03
238.26,-0.28,2.74,-0.22,2.79,-2.79,-2.97,-2.59,-3.06,-3.01,-3.02
240.64,-0.28,2.72,-0.23,2.76,-2.76,-2.97,-2.62,-3.04,-2.99,-3.00
243.05,-0.27,2.71,-0.24,2.73,-2.73,-2.95,-2.65,-3.00,-2.98,-2.97
245.48,-0.24,2.72,-0.26,2.70,-2.70,-2.93,-2.67,-2.93,-2.95,-2.95
247.93,-0.23,2.70,-0.27,2.66,-2.66,-2.90,-2.69,-2.88,-2.93,-2.92
250.41,-0.29,2.62,-0.29,2.62,-2.62,-2.85,-2.70,-2.90,-2.91,-2.91
252.92,-0.29,2.59,-0.32,2.58,-2.58,-2.81,-2.72,-2.86,-2.89,-2.88
255.45,-0.27,2.59,-0.34,2.53,-2.53,-2.76,-2.72,-2.80,-2.87,-2.86
258.00,-0.28,2.56,-0.36,2.49,-2.49,-2.70,-2.73,-2.77,-2.84,-2.84
260.58,-0.35,2.48,-0.37,2.45,-2.45,-2.64,-2.73,-2.80,-2.82,-2.83
263.19,-0.40,2.40,-0.37,2.43,-2.43,-2.58,-2.73,-2.82,-2.80,-2.79
265.82,-0.46,2.33,-0.37,2.40,-2.40,-2.52,-2.72,-2.86,-2.78,-2.78
268.48,-0.46,2.30,-0.37,2.38,-2.38,-2.47,-2.71,-2.84,-2.75,-2.76
271.16,-0.46,2.27,-0.36,2.36,-2.36,-2.41,-2.70,-2.82,-2.73,-2.73
273.87,-0.42,2.30,-0.35,2.35,-2.35,-2.36,-2.68,-2.77,-2.71,-2.71
276.61,-0.38,2.30,-0.33,2.35,-2.35,-2.30,-2.66,-2.73,-2.68,-2.68
279.38,-0.32,2.34,-0.31,2.35,-2.35,-2.25,-2.65,-2.67,-2.65,-2.66
282.17,-0.27,2.37,-0.28,2.35,-2.35,-2.21,-2.62,-2.61,-2.63,-2.63
284.99,-0.21,2.39,-0.25,2.35,-2.35,-2.17,-2.60,-2.55,-2.60,-2.60
287.84,-0.13,2.46,-0.22,2.35,-2.35,-2.13,-2.58,-2.48,-2.57,-2.58
290.72,-0.12,2.43,-0.19,2.36,-2.36,-2.09,-2.55,-2.48,-2.55,-2.55
293.63,-0.13,2.40,-0.15,2.37,-2.37,-2.06,-2.53,-2.49,-2.52,-2.52
296.57,-0.11,2.38,-0.12,2.37,-2.37,-2.03,-2.50,-2.47,-2.49,-2.49
299.53,-0.10,2.37,-0.10,2.36,-2.36,-2.00,-2.47,-2.46,-2.46,-2.46
302.53,-0.09,2.36,-0.08,2.36,-2.36,-1.98,-2.45,-2.44,-2.44,-2.45
305.55,-0.12,2.29,-0.06,2.35,-2.35,-1.96,-2.42,-2.46,-2.41,-2.40
308.61,-0.17,2.22,-0.06,2.33,-2.33,-1.94,-2.40,-2.50,-2.39,-2.39
311.69,-0.05,2.31,-0.06,2.31,-2.31,-1.93,-2.37,-2.36,-2.37,-2.36
314.81,-0.04,2.30,-0.06,2.28,-2.28,-1.92,-2.35,-2.32,-2.35,-2.33
317.96,-0.06,2.26,-0.07,2.25,-2.25,-1.91,-2.32,-2.31,-2.33,-2.32
321.14,-0.06,2.26,-0.08,2.23,-2.23,-1.90,-2.30,-2.29,-2.31,-2.31
324.35,-0.06,2.24,-0.08,2.21,-2.21,-1.89,-2.28,-2.26,-2.29,-2.30
327.59,-0.06,2.22,-0.10,2.18,-2.18,-1.89,-2.26,-2.24,-2.28,-2.28
330.87,-0.06,2.22,-0.11,2.16,-2.16,-1.89,-2.24,-2.21,-2.27,-2.27
334.18,-0.06,2.20,-0.12,2.14,-2.14,-1.89,-2.22,-2.19,-2.25,-2.26
337.52,-0.16,2.09,-0.13,2.12,-2.12,-1.89,-2.21,-2.28,-2.24,-2.25
340.90,-0.23,2.01,-0.13,2.11,-2.11,-1.90,-2.19,-2.33,-2.24,-2.23
344.30,-0.21,2.02,-0.14,2.09,-2.09,-1.91,-2.18,-2.30,-2.23,-2.22
347.75,-0.18,2.05,-0.15,2.07,-2.07,-1.91,-2.17,-2.25,-2.23,-2.23
351.23,-0.17,2.05,-0.16,2.06,-2.06,-1.92,-2.16,-2.23,-2.22,-2.22
354.74,-0.16,2.07,-0.16,2.06,-2.06,-1.93,-2.16,-2.21,-2.22,-2.22
358.28,-0.23,1.99,-0.16,2.06,-2.06,-1.94,-2.15,-2.28,-2.22,-2.21
361.87,-0.17,2.05,-0.16,2.06,-2.06,-1.96,-2.15,-2.22,-2.22,-2.22
365.49,-0.06,2.15,-0.15,2.06,-2.06,-1.97,-2.14,-2.12,-2.21,-2.21
369.14,-0.12,2.11,-0.14,2.07,-2.07,-1.98,-2.14,-2.19,-2.22,-2.22
372.83,-0.13,2.10,-0.13,2.09,-2.09,-2.00,-2.14,-2.21,-2.22,-2.22
376.56,-0.12,2.11,-0.12,2.10,-2.10,-2.01,-2.15,-2.22,-2.22,-2.23
380.33,-0.12,2.10,-0.11,2.12,-2.12,-2.03,-2.15,-2.23,-2.22,-2.22
384.13,-0.11,2.11,-0.11,2.12,-2.12,-2.05,-2.16,-2.23,-2.23,-2.22
387.97,-0.11,2.12,-0.11,2.13,-2.13,-2.06,-2.17,-2.23,-2.23,-2.23
391.85,-0.10,2.15,-0.10,2.13,-2.13,-2.08,-2.17,-2.23,-2.24,-2.24
395.77,-0.10,2.14,-0.10,2.14,-2.14,-2.10,-2.18,-2.24,-2.24,-2.23
399.73,-0.10,2.15,-0.10,2.15,-2.15,-2.12,-2.20,-2.24,-2.25,-2.25
403.72,-0.10,2.15,-0.11,2.14,-2.14,-2.14,-2.21,-2.24,-2.26,-2.25
407.76,-0.11,2.15,-0.12,2.14,-2.14,-2.16,-2.22,-2.25,-2.26,-2.26
411.84,-0.11,2.15,-0.11,2.15,-2.15,-2.18,-2.24,-2.26,-2.26,-2.26
415.96,-0.11,2.16,-0.11,2.16,-2.16,-2.20,-2.25,-2.26,-2.26,-2.26
420.12,-0.11,2.16,-0.10,2.16,-2.16,-2.21,-2.27,-2.27,-2.26,-2.26
424.32,-0.10,2.17,-0.09,2.17,-2.17,-2.23,-2.28,-2.27,-2.26,-2.26
428.56,-0.09,2.17,-0.07,2.17,-2.17,-2.25,-2.30,-2.26,-2.25,-2.26
432.85,-0.08,2.17,-0.06,2.18,-2.18,-2.27,-2.32,-2.25,-2.23,-2.25
437.18,-0.05,2.19,-0.03,2.19,-2.19,-2.29,-2.33,-2.23,-2.21,-2.24
441.55,-0.02,2.18,0.02,2.20,-2.20,-2.30,-2.35,-2.22,-2.19,-2.20
445.96,0.03,2.20,0.07,2.22,-2.22,-2.32,-2.36,-2.19,-2.16,-2.17
450.42,0.08,2.22,0.12,2.24,-2.24,-2.34,-2.38,-2.15,-2.12,-2.14
454.93,0.14,2.24,0.16,2.24,-2.24,-2.35,-2.39,-2.10,-2.08,-2.09
459.48,0.20,2.25,0.21,2.24,-2.24,-2.37,-2.41,-2.04,-2.04,-2.04
464.07,0.26,2.26,0.26,2.24,-2.24,-2.38,-2.42,-1.98,-1.99,-1.99
468.71,0.31,2.25,0.31,2.25,-2.25,-2.39,-2.43,-1.93,-1.94,-1.93
473.40,0.38,2.28,0.35,2.25,-2.25,-2.40,-2.44,-1.86,-1.89,-1.89
