frequency,raw,error,smoothed,error_smoothed,equalization,parametric_eq,fixed_band_eq,equalized_raw,equalized_smoothed,target
20.00,-0.75,-3.24,-0.75,-3.24,3.23,3.06,1.37,2.48,2.48,2.49
20.20,-0.73,-3.27,-0.72,-3.26,3.26,3.07,1.41,2.54,2.54,2.54
20.40,-0.71,-3.30,-0.70,-3.29,3.29,3.07,1.45,2.59,2.59,2.59
20.61,-0.68,-3.30,-0.68,-3.31,3.32,3.07,1.49,2.64,2.64,2.62
20.81,-0.66,-3.33,-0.66,-3.32,3.33,3.08,1.53,2.68,2.68,2.67
21.02,-0.64,-3.35,-0.64,-3.34,3.34,3.08,1.58,2.71,2.71,2.71
21.23,-0.62,-3.35,-0.62,-3.35,3.35,3.08,1.62,2.73,2.73,2.73
21.44,-0.60,-3.35,-0.59,-3.34,3.34,3.09,1.67,2.75,2.75,2.75
21.66,-0.57,-3.34,-0.57,-3.34,3.34,3.09,1.72,2.77,2.76,2.77
21.87,-0.55,-3.33,-0.54,-3.33,3.32,3.09,1.77,2.77,2.77,2.78
22.09,-0.52,-3.32,-0.51,-3.31,3.29,3.09,1.82,2.78,2.78,2.80
22.31,-0.48,-3.28,-0.47,-3.28,3.26,3.09,1.87,2.79,2.79,2.81
22.54,-0.43,-3.24,-0.43,-3.24,3.23,3.10,1.93,2.81,2.81,2.81
22.76,-0.39,-3.19,-0.38,-3.19,3.21,3.10,1.98,2.82,2.83,2.81
22.99,-0.34,-3.14,-0.35,-3.15,3.18,3.10,2.04,2.85,2.83,2.80
23.22,-0.34,-3.14,-0.33,-3.13,3.16,3.10,2.10,2.83,2.83,2.80
23.45,-0.34,-3.14,-0.33,-3.13,3.14,3.10,2.16,2.81,2.81,2.80
23.69,-0.34,-3.15,-0.34,-3.14,3.13,3.10,2.22,2.79,2.79,2.81
23.92,-0.34,-3.15,-0.33,-3.14,3.12,3.10,2.28,2.78,2.78,2.81
24.16,-0.32,-3.13,-0.32,-3.13,3.11,3.10,2.34,2.79,2.79,2.81
24.40,-0.30,-3.11,-0.29,-3.11,3.10,3.10,2.40,2.80,2.80,2.82
24.65,-0.27,-3.08,-0.27,-3.08,3.09,3.10,2.47,2.82,2.82,2.81
24.89,-0.25,-3.06,-0.25,-3.06,3.08,3.10,2.53,2.83,2.83,2.81
25.14,-0.24,-3.05,-0.24,-3.05,3.06,3.10,2.60,2.83,2.83,2.81
25.39,-0.24,-3.06,-0.23,-3.05,3.06,3.10,2.66,2.82,2.82,2.82
25.65,-0.24,-3.06,-0.24,-3.05,3.05,3.10,2.73,2.81,2.82,2.82
25.91,-0.24,-3.05,-0.24,-3.05,3.05,3.10,2.79,2.81,2.81,2.81
26.16,-0.24,-3.05,-0.24,-3.05,3.05,3.10,2.86,2.81,2.81,2.81
26.43,-0.24,-3.05,-0.24,-3.05,3.05,3.10,2.93,2.81,2.81,2.81
26.69,-0.24,-3.05,-0.24,-3.05,3.04,3.10,2.99,2.80,2.80,2.81
26.96,-0.24,-3.05,-0.23,-3.04,3.02,3.10,3.05,2.79,2.79,2.81
27.23,-0.22,-3.03,-0.21,-3.02,3.01,3.09,3.11,2.79,2.79,2.81
27.50,-0.19,-3.00,-0.19,-2.99,2.99,3.09,3.17,2.80,2.80,2.81
27.77,-0.16,-2.96,-0.16,-2.96,2.97,3.09,3.23,2.82,2.81,2.80
28.05,-0.14,-2.94,-0.14,-2.93,2.95,3.09,3.29,2.82,2.81,2.80
28.33,-0.13,-2.92,-0.12,-2.92,2.93,3.08,3.34,2.80,2.81,2.79
28.62,-0.12,-2.91,-0.12,-2.91,2.91,3.08,3.39,2.79,2.79,2.79
28.90,-0.11,-2.91,-0.11,-2.90,2.89,3.08,3.43,2.79,2.78,2.80
29.19,-0.10,-2.89,-0.09,-2.89,2.88,3.07,3.47,2.78,2.78,2.79
29.48,-0.08,-2.88,-0.07,-2.87,2.86,3.07,3.51,2.79,2.79,2.80
29.78,-0.06,-2.85,-0.06,-2.85,2.85,3.07,3.54,2.80,2.80,2.79
30.08,-0.04,-2.84,-0.04,-2.84,2.84,3.06,3.57,2.81,2.80,2.80
30.38,-0.04,-2.83,-0.04,-2.83,2.83,3.06,3.60,2.80,2.80,2.79
30.68,-0.04,-2.83,-0.03,-2.82,2.83,3.06,3.62,2.79,2.79,2.79
30.99,-0.04,-2.83,-0.04,-2.82,2.82,3.05,3.63,2.79,2.79,2.79
31.30,-0.04,-2.82,-0.04,-2.82,2.82,3.05,3.64,2.78,2.78,2.78
31.61,-0.04,-2.82,-0.04,-2.82,2.82,3.04,3.64,2.78,2.78,2.78
31.93,-0.04,-2.82,-0.04,-2.81,2.81,3.04,3.64,2.78,2.78,2.78
32.24,-0.04,-2.81,-0.04,-2.81,2.81,3.03,3.64,2.77,2.77,2.77
32.57,-0.04,-2.81,-0.04,-2.81,2.79,3.03,3.63,2.76,2.75,2.77
32.89,-0.04,-2.81,-0.03,-2.80,2.78,3.02,3.61,2.74,2.75,2.77
33.22,-0.02,-2.78,-0.01,-2.77,2.76,3.01,3.59,2.74,2.75,2.76
33.55,0.02,-2.73,0.02,-2.74,2.74,3.01,3.57,2.76,2.76,2.76
33.89,0.05,-2.70,0.05,-2.70,2.72,3.00,3.54,2.77,2.76,2.75
34.23,0.06,-2.69,0.06,-2.68,2.70,2.99,3.51,2.77,2.77,2.75
34.57,0.06,-2.68,0.07,-2.67,2.69,2.99,3.48,2.76,2.76,2.74
34.92,0.06,-2.68,0.06,-2.68,2.69,2.98,3.44,2.75,2.75,2.74
35.27,0.04,-2.69,0.04,-2.69,2.69,2.97,3.40,2.74,2.74,2.73
35.62,0.02,-2.71,0.03,-2.70,2.70,2.97,3.36,2.72,2.73,2.73
35.97,0.00,-2.73,0.01,-2.72,2.71,2.96,3.32,2.72,2.72,2.73
36.33,-0.01,-2.74,-0.01,-2.74,2.73,2.95,3.27,2.72,2.72,2.73
36.70,-0.03,-2.75,-0.02,-2.75,2.74,2.94,3.23,2.71,2.72,2.72
37.06,-0.04,-2.76,-0.03,-2.76,2.75,2.93,3.18,2.71,2.72,2.72
37.43,-0.04,-2.77,-0.04,-2.76,2.76,2.92,3.14,2.72,2.72,2.73
37.81,-0.04,-2.77,-0.04,-2.76,2.76,2.92,3.09,2.73,2.73,2.73
38.19,-0.04,-2.76,-0.04,-2.76,2.77,2.91,3.05,2.73,2.73,2.72
38.57,-0.04,-2.77,-0.04,-2.77,2.77,2.90,3.00,2.73,2.73,2.73
38.95,-0.04,-2.78,-0.04,-2.77,2.77,2.89,2.96,2.73,2.73,2.74
39.34,-0.04,-2.77,-0.04,-2.77,2.77,2.88,2.92,2.73,2.73,2.73
39.74,-0.04,-2.77,-0.04,-2.77,2.77,2.87,2.88,2.73,2.73,2.73
40.14,-0.04,-2.77,-0.04,-2.76,2.76,2.86,2.84,2.73,2.73,2.73
40.54,-0.04,-2.77,-0.04,-2.76,2.76,2.85,2.80,2.72,2.72,2.73
40.94,-0.04,-2.76,-0.04,-2.76,2.75,2.84,2.76,2.72,2.72,2.72
41.35,-0.04,-2.76,-0.04,-2.75,2.75,2.83,2.72,2.71,2.71,2.72
41.76,-0.04,-2.75,-0.04,-2.75,2.75,2.81,2.69,2.71,2.71,2.71
42.18,-0.04,-2.75,-0.03,-2.74,2.75,2.80,2.66,2.71,2.72,2.71
42.60,-0.04,-2.74,-0.03,-2.73,2.75,2.79,2.63,2.72,2.72,2.70
43.03,-0.04,-2.73,-0.05,-2.74,2.75,2.78,2.60,2.72,2.70,2.69
43.46,-0.09,-2.77,-0.08,-2.76,2.76,2.77,2.58,2.67,2.67,2.68
43.90,-0.13,-2.79,-0.11,-2.77,2.76,2.75,2.55,2.63,2.64,2.66
44.33,-0.14,-2.78,-0.14,-2.78,2.76,2.74,2.53,2.62,2.62,2.64
44.78,-0.14,-2.76,-0.14,-2.76,2.75,2.73,2.51,2.62,2.61,2.62
45.23,-0.14,-2.75,-0.14,-2.74,2.75,2.71,2.49,2.61,2.61,2.61
45.68,-0.14,-2.74,-0.14,-2.73,2.74,2.70,2.48,2.60,2.60,2.60
46.13,-0.14,-2.72,-0.14,-2.72,2.73,2.69,2.46,2.59,2.59,2.58
46.60,-0.14,-2.72,-0.14,-2.71,2.71,2.67,2.45,2.58,2.58,2.58
47.06,-0.14,-2.70,-0.14,-2.70,2.70,2.66,2.44,2.56,2.56,2.56
47.53,-0.14,-2.69,-0.14,-2.69,2.68,2.64,2.43,2.54,2.54,2.55
48.01,-0.14,-2.69,-0.14,-2.68,2.67,2.63,2.42,2.53,2.53,2.55
48.49,-0.14,-2.67,-0.14,-2.67,2.66,2.61,2.42,2.52,2.52,2.53
48.97,-0.14,-2.65,-0.13,-2.64,2.65,2.60,2.42,2.52,2.52,2.51
49.46,-0.14,-2.63,-0.13,-2.62,2.65,2.58,2.42,2.51,2.52,2.49
49.96,-0.14,-2.61,-0.16,-2.63,2.65,2.57,2.42,2.51,2.49,2.47
50.46,-0.19,-2.65,-0.19,-2.64,2.65,2.55,2.42,2.46,2.46,2.46
50.96,-0.24,-2.69,-0.22,-2.66,2.65,2.53,2.42,2.41,2.43,2.45
51.47,-0.24,-2.67,-0.24,-2.67,2.65,2.52,2.42,2.41,2.41,2.43
51.99,-0.24,-2.66,-0.24,-2.66,2.65,2.50,2.43,2.41,2.41,2.42
52.51,-0.24,-2.65,-0.24,-2.65,2.65,2.48,2.43,2.41,2.41,2.41
53.03,-0.24,-2.65,-0.24,-2.64,2.64,2.47,2.43,2.41,2.41,2.41
53.56,-0.24,-2.63,-0.24,-2.63,2.63,2.45,2.44,2.40,2.40,2.39
54.10,-0.24,-2.62,-0.24,-2.61,2.62,2.43,2.45,2.38,2.38,2.38
54.64,-0.24,-2.60,-0.24,-2.60,2.60,2.41,2.45,2.37,2.37,2.36
55.18,-0.24,-2.60,-0.24,-2.59,2.59,2.39,2.46,2.35,2.35,2.36
55.74,-0.24,-2.58,-0.24,-2.58,2.58,2.37,2.46,2.34,2.34,2.34
56.29,-0.24,-2.57,-0.24,-2.57,2.56,2.35,2.46,2.32,2.32,2.33
56.86,-0.24,-2.56,-0.24,-2.55,2.55,2.33,2.47,2.31,2.31,2.32
57.42,-0.24,-2.53,-0.24,-2.53,2.53,2.32,2.47,2.30,2.30,2.29
58.00,-0.24,-2.52,-0.24,-2.52,2.52,2.30,2.47,2.28,2.28,2.28
58.58,-0.24,-2.51,-0.23,-2.50,2.51,2.27,2.46,2.27,2.28,2.27
59.16,-0.24,-2.49,-0.23,-2.48,2.50,2.25,2.46,2.26,2.27,2.25
59.76,-0.24,-2.47,-0.25,-2.48,2.49,2.23,2.46,2.25,2.23,2.23
60.35,-0.28,-2.47,-0.28,-2.47,2.47,2.21,2.45,2.19,2.18,2.19
60.96,-0.34,-2.49,-0.31,-2.47,2.45,2.19,2.44,2.11,2.13,2.15
61.57,-0.34,-2.45,-0.34,-2.45,2.42,2.17,2.42,2.08,2.08,2.11
62.18,-0.34,-2.41,-0.34,-2.41,2.39,2.15,2.41,2.05,2.05,2.07
62.80,-0.34,-2.36,-0.34,-2.36,2.36,2.12,2.39,2.03,2.03,2.02
63.43,-0.34,-2.32,-0.33,-2.31,2.33,2.10,2.37,1.99,2.00,1.98
64.07,-0.34,-2.27,-0.34,-2.27,2.30,2.08,2.35,1.96,1.96,1.93
64.71,-0.35,-2.24,-0.36,-2.25,2.27,2.06,2.32,1.92,1.91,1.89
65.35,-0.38,-2.23,-0.39,-2.23,2.23,2.03,2.30,1.85,1.85,1.85
66.01,-0.44,-2.24,-0.42,-2.21,2.20,2.01,2.27,1.76,1.78,1.80
66.67,-0.44,-2.19,-0.44,-2.19,2.17,1.98,2.24,1.73,1.73,1.75
67.33,-0.44,-2.14,-0.44,-2.14,2.13,1.96,2.20,1.70,1.69,1.70
68.01,-0.44,-2.10,-0.44,-2.09,2.09,1.94,2.17,1.66,1.66,1.66
68.69,-0.44,-2.05,-0.44,-2.04,2.05,1.91,2.13,1.61,1.61,1.61
69.37,-0.44,-2.00,-0.44,-2.00,2.00,1.89,2.09,1.57,1.57,1.56
70.07,-0.44,-1.95,-0.44,-1.95,1.95,1.86,2.05,1.51,1.51,1.51
70.77,-0.44,-1.90,-0.44,-1.90,1.89,1.83,2.00,1.46,1.46,1.46
71.48,-0.44,-1.85,-0.44,-1.84,1.84,1.81,1.96,1.40,1.40,1.41
72.19,-0.44,-1.78,-0.44,-1.78,1.78,1.78,1.92,1.34,1.34,1.34
72.91,-0.44,-1.72,-0.44,-1.72,1.72,1.76,1.87,1.29,1.29,1.28
73.64,-0.44,-1.67,-0.44,-1.66,1.66,1.73,1.83,1.23,1.23,1.23
74.38,-0.44,-1.61,-0.44,-1.60,1.60,1.70,1.78,1.17,1.17,1.17
75.12,-0.44,-1.55,-0.44,-1.55,1.54,1.68,1.74,1.11,1.11,1.11
75.87,-0.44,-1.49,-0.44,-1.49,1.48,1.65,1.69,1.05,1.05,1.05
76.63,-0.44,-1.44,-0.44,-1.43,1.43,1.62,1.64,0.99,0.99,1.00
77.40,-0.44,-1.39,-0.44,-1.38,1.38,1.59,1.60,0.94,0.94,0.95
78.17,-0.44,-1.33,-0.43,-1.33,1.33,1.56,1.55,0.90,0.90,0.89
78.95,-0.44,-1.29,-0.43,-1.28,1.30,1.54,1.51,0.86,0.87,0.85
79.74,-0.44,-1.24,-0.45,-1.24,1.27,1.51,1.46,0.84,0.83,0.80
80.54,-0.48,-1.23,-0.48,-1.23,1.25,1.48,1.42,0.78,0.78,0.75
81.35,-0.53,-1.23,-0.53,-1.23,1.24,1.45,1.37,0.71,0.71,0.70
82.16,-0.59,-1.24,-0.59,-1.24,1.22,1.42,1.33,0.63,0.63,0.65
82.98,-0.65,-1.26,-0.63,-1.23,1.20,1.39,1.29,0.55,0.57,0.61
83.81,-0.65,-1.21,-0.65,-1.21,1.17,1.36,1.25,0.53,0.52,0.56
84.65,-0.65,-1.16,-0.65,-1.16,1.14,1.33,1.21,0.50,0.49,0.51
85.50,-0.65,-1.12,-0.64,-1.11,1.11,1.30,1.17,0.46,0.47,0.47
86.35,-0.64,-1.06,-0.64,-1.06,1.07,1.27,1.13,0.43,0.43,0.42
87.22,-0.64,-1.01,-0.63,-1.00,1.02,1.24,1.09,0.39,0.39,0.37
88.09,-0.64,-0.96,-0.64,-0.96,0.98,1.21,1.05,0.34,0.33,0.32
88.97,-0.66,-0.92,-0.67,-0.94,0.94,1.18,1.01,0.28,0.26,0.26
89.86,-0.73,-0.94,-0.70,-0.91,0.91,1.15,0.98,0.18,0.21,0.21
90.76,-0.74,-0.90,-0.73,-0.89,0.88,1.11,0.94,0.15,0.16,0.16
91.66,-0.74,-0.85,-0.76,-0.86,0.87,1.08,0.91,0.13,0.11,0.11
92.58,-0.79,-0.84,-0.79,-0.84,0.86,1.05,0.87,0.07,0.07,0.05
93.51,-0.85,-0.85,-0.84,-0.85,0.85,1.02,0.84,0.01,0.01,-0.00
94.44,-0.91,-0.87,-0.89,-0.85,0.85,0.99,0.81,-0.05,-0.04,-0.04
95.39,-0.94,-0.85,-0.94,-0.85,0.85,0.95,0.78,-0.09,-0.09,-0.09
96.34,-0.97,-0.83,-0.99,-0.85,0.84,0.92,0.75,-0.12,-0.14,-0.14
97.30,-1.05,-0.86,-1.02,-0.83,0.83,0.89,0.72,-0.22,-0.19,-0.19
98.28,-1.06,-0.82,-1.06,-0.82,0.80,0.86,0.69,-0.25,-0.25,-0.24
99.26,-1.07,-0.79,-1.08,-0.80,0.76,0.82,0.66,-0.30,-0.32,-0.28
100.25,-1.09,-0.76,-1.08,-0.75,0.72,0.79,0.63,-0.37,-0.36,-0.33
101.25,-1.08,-0.69,-1.06,-0.68,0.66,0.76,0.60,-0.41,-0.39,-0.38
102.27,-1.01,-0.58,-1.01,-0.58,0.61,0.72,0.57,-0.40,-0.41,-0.43
103.29,-0.97,-0.49,-0.97,-0.50,0.54,0.69,0.55,-0.42,-0.43,-0.48
104.32,-0.95,-0.43,-0.96,-0.44,0.47,0.66,0.52,-0.48,-0.49,-0.52
105.37,-0.98,-0.41,-0.98,-0.41,0.40,0.62,0.50,-0.58,-0.58,-0.57
106.42,-1.00,-0.38,-0.99,-0.37,0.33,0.59,0.47,-0.67,-0.66,-0.62
107.48,-1.01,-0.32,-0.97,-0.29,0.26,0.56,0.44,-0.75,-0.71,-0.68
108.56,-0.92,-0.19,-0.93,-0.20,0.20,0.52,0.42,-0.72,-0.73,-0.73
109.64,-0.87,-0.09,-0.89,-0.11,0.13,0.49,0.39,-0.73,-0.76,-0.78
110.74,-0.89,-0.05,-0.88,-0.05,0.07,0.45,0.37,-0.82,-0.81,-0.84
111.85,-0.91,-0.03,-0.90,-0.01,0.01,0.42,0.35,-0.89,-0.89,-0.88
112.97,-0.92,0.02,-0.91,0.03,-0.04,0.39,0.32,-0.95,-0.95,-0.94
114.10,-0.92,0.07,-0.91,0.08,-0.08,0.35,0.30,-0.99,-0.99,-0.99
115.24,-0.92,0.12,-0.92,0.12,-0.10,0.32,0.27,-1.02,-1.02,-1.04
116.39,-0.94,0.15,-0.95,0.14,-0.12,0.28,0.25,-1.06,-1.07,-1.09
117.55,-0.99,0.14,-1.00,0.13,-0.13,0.25,0.22,-1.12,-1.13,-1.13
118.73,-1.08,0.09,-1.05,0.12,-0.14,0.21,0.20,-1.21,-1.19,-1.17
119.92,-1.11,0.09,-1.09,0.11,-0.14,0.18,0.18,-1.25,-1.23,-1.20
121.12,-1.10,0.14,-1.11,0.13,-0.13,0.14,0.15,-1.23,-1.25,-1.24
122.33,-1.13,0.14,-1.13,0.14,-0.12,0.11,0.13,-1.25,-1.25,-1.27
123.55,-1.17,0.13,-1.17,0.13,-0.11,0.07,0.10,-1.28,-1.28,-1.30
124.79,-1.23,0.10,-1.23,0.10,-0.10,0.04,0.07,-1.33,-1.33,-1.33
126.03,-1.31,0.05,-1.28,0.07,-0.09,0.00,0.05,-1.39,-1.37,-1.36
127.29,-1.34,0.04,-1.34,0.05,-0.06,-0.03,0.02,-1.40,-1.40,-1.38
128.57,-1.37,0.05,-1.39,0.03,-0.03,-0.07,-0.00,-1.40,-1.42,-1.42
129.85,-1.46,-0.01,-1.44,0.01,0.01,-0.10,-0.03,-1.45,-1.43,-1.45
131.15,-1.52,-0.04,-1.51,-0.03,0.05,-0.14,-0.06,-1.46,-1.46,-1.48
132.46,-1.58,-0.07,-1.61,-0.10,0.11,-0.17,-0.08,-1.47,-1.50,-1.51
133.79,-1.72,-0.18,-1.70,-0.16,0.17,-0.21,-0.11,-1.55,-1.53,-1.54
135.12,-1.81,-0.24,-1.79,-0.22,0.23,-0.24,-0.14,-1.58,-1.56,-1.57
136.48,-1.87,-0.28,-1.88,-0.28,0.29,-0.28,-0.17,-1.57,-1.58,-1.59
137.84,-1.94,-0.31,-1.97,-0.34,0.35,-0.31,-0.20,-1.59,-1.62,-1.63
139.22,-2.08,-0.42,-2.07,-0.41,0.40,-0.35,-0.23,-1.68,-1.67,-1.66
140.61,-2.18,-0.49,-2.14,-0.45,0.43,-0.38,-0.26,-1.75,-1.71,-1.69
142.02,-2.17,-0.46,-2.16,-0.45,0.43,-0.41,-0.29,-1.74,-1.73,-1.71
143.44,-2.12,-0.38,-2.16,-0.42,0.41,-0.45,-0.32,-1.71,-1.75,-1.74
144.87,-2.14,-0.36,-2.15,-0.37,0.35,-0.48,-0.35,-1.78,-1.80,-1.78
146.32,-2.16,-0.34,-2.11,-0.30,0.27,-0.52,-0.38,-1.89,-1.84,-1.82
147.78,-2.06,-0.20,-2.03,-0.17,0.15,-0.55,-0.42,-1.90,-1.88,-1.85
149.26,-1.89,0.01,-1.92,-0.01,-0.00,-0.59,-0.45,-1.89,-1.92,-1.90
150.75,-1.76,0.20,-1.80,0.16,-0.18,-0.63,-0.48,-1.93,-1.98,-1.96
152.26,-1.73,0.30,-1.69,0.34,-0.37,-0.66,-0.52,-2.09,-2.06,-2.03
153.78,-1.62,0.49,-1.58,0.52,-0.56,-0.70,-0.55,-2.17,-2.14,-2.10
155.32,-1.43,0.74,-1.45,0.72,-0.73,-0.73,-0.59,-2.16,-2.18,-2.17
156.88,-1.31,0.94,-1.31,0.95,-0.88,-0.77,-0.62,-2.19,-2.19,-2.25
158.44,-1.24,1.09,-1.24,1.09,-1.00,-0.80,-0.66,-2.24,-2.24,-2.33
160.03,-1.22,1.19,-1.26,1.15,-1.07,-0.84,-0.70,-2.29,-2.33,-2.41
161.63,-1.37,1.11,-1.33,1.15,-1.10,-0.87,-0.74,-2.47,-2.44,-2.48
163.24,-1.46,1.08,-1.44,1.10,-1.09,-0.91,-0.78,-2.54,-2.53,-2.54
164.88,-1.56,1.03,-1.56,1.03,-1.03,-0.95,-0.82,-2.58,-2.59,-2.59
166.53,-1.68,0.96,-1.68,0.96,-0.94,-0.98,-0.86,-2.62,-2.62,-2.64
168.19,-1.82,0.86,-1.83,0.85,-0.84,-1.02,-0.90,-2.66,-2.67,-2.68
169.87,-1.99,0.73,-1.97,0.75,-0.76,-1.06,-0.94,-2.74,-2.72,-2.72
171.57,-2.10,0.64,-2.10,0.64,-0.70,-1.09,-0.99,-2.79,-2.79,-2.74
173.29,-2.16,0.59,-2.17,0.58,-0.66,-1.13,-1.03,-2.82,-2.83,-2.75
175.02,-2.21,0.55,-2.17,0.59,-0.66,-1.17,-1.08,-2.87,-2.84,-2.76
176.77,-2.11,0.66,-2.11,0.66,-0.70,-1.21,-1.12,-2.80,-2.81,-2.77
178.54,-2.00,0.78,-2.00,0.78,-0.76,-1.25,-1.17,-2.76,-2.76,-2.78
180.32,-1.86,0.91,-1.87,0.90,-0.86,-1.30,-1.22,-2.72,-2.73,-2.77
182.13,-1.75,1.01,-1.76,1.01,-0.98,-1.34,-1.27,-2.73,-2.74,-2.76
183.95,-1.67,1.10,-1.65,1.12,-1.12,-1.38,-1.32,-2.79,-2.77,-2.77
185.79,-1.54,1.23,-1.52,1.25,-1.27,-1.43,-1.37,-2.80,-2.79,-2.77
187.65,-1.38,1.41,-1.39,1.40,-1.41,-1.48,-1.42,-2.78,-2.80,-2.79
189.52,-1.24,1.56,-1.26,1.54,-1.54,-1.53,-1.47,-2.78,-2.80,-2.80
191.42,-1.16,1.66,-1.13,1.69,-1.66,-1.58,-1.53,-2.82,-2.80,-2.82
193.33,-1.04,1.80,-1.02,1.82,-1.78,-1.64,-1.58,-2.82,-2.81,-2.84
195.27,-0.91,1.95,-0.93,1.93,-1.90,-1.70,-1.63,-2.81,-2.84,-2.86
197.22,-0.85,2.03,-0.86,2.02,-2.01,-1.77,-1.69,-2.86,-2.88,-2.88
199.19,-0.84,2.06,-0.81,2.09,-2.12,-1.84,-1.74,-2.95,-2.92,-2.90
201.18,-0.76,2.16,-0.74,2.18,-2.21,-1.92,-1.80,-2.96,-2.95,-2.92
203.19,-0.66,2.28,-0.66,2.28,-2.29,-2.01,-1.85,-2.95,-2.96,-2.94
205.23,-0.56,2.40,-0.57,2.38,-2.37,-2.10,-1.91,-2.93,-2.94,-2.96
207.28,-0.52,2.45,-0.50,2.47,-2.45,-2.20,-1.97,-2.96,-2.95,-2.97
209.35,-0.45,2.54,-0.46,2.53,-2.52,-2.31,-2.02,-2.97,-2.98,-2.99
211.44,-0.43,2.59,-0.43,2.58,-2.59,-2.43,-2.08,-3.02,-3.02,-3.02
213.56,-0.42,2.61,-0.39,2.64,-2.66,-2.55,-2.13,-3.07,-3.05,-3.03
215.69,-0.35,2.69,-0.35,2.69,-2.71,-2.66,-2.18,-3.06,-3.06,-3.04
217.85,-0.30,2.75,-0.30,2.75,-2.76,-2.77,-2.24,-3.05,-3.06,-3.05
220.03,-0.26,2.80,-0.26,2.81,-2.79,-2.86,-2.29,-3.05,-3.05,-3.06
222.23,-0.24,2.85,-0.24,2.84,-2.82,-2.92,-2.34,-3.05,-3.06,-3.09
224.45,-0.24,2.84,-0.23,2.85,-2.84,-2.95,-2.38,-3.08,-3.07,-3.08
226.70,-0.24,2.84,-0.23,2.85,-2.85,-2.95,-2.43,-3.08,-3.08,-3.08
228.96,-0.24,2.83,-0.23,2.84,-2.85,-2.91,-2.47,-3.08,-3.07,-3.07
231.25,-0.23,2.83,-0.22,2.84,-2.83,-2.86,-2.51,-3.06,-3.06,-3.06
233.57,-0.22,2.83,-0.23,2.82,-2.82,-2.79,-2.55,-3.03,-3.05,-3.05
235.90,-0.25,2.79,-0.25,2.80,-2.79,-2.72,-2.58,-3.04,-3.04,-3.04
238.26,-0.28,2.75,-0.27,2.76,-2.77,-2.65,-2.62,-3.05,-3.04,-3.03
240.64,-0.28,2.72,-0.27,2.73,-2.75,-2.58,-2.64,-3.02,-3.02,-3.00
243.05,-0.27,2.70,-0.26,2.72,-2.72,-2.52,-2.67,-2.99,-2.98,-2.97
245.48,-0.24,2.71,-0.25,2.70,-2.70,-2.47,-2.69,-2.93,-2.94,-2.95
247.93,-0.23,2.69,-0.25,2.67,-2.67,-2.43,-2.71,-2.90,-2.92,-2.92
250.41,-0.29,2.61,-0.26,2.64,-2.64,-2.40,-2.72,-2.92,-2.90,-2.90
252.92,-0.29,2.58,-0.27,2.60,-2.60,-2.37,-2.73,-2.88,-2.87,-2.87
255.45,-0.27,2.58,-0.28,2.57,-2.55,-2.35,-2.73,-2.82,-2.83,-2.85
258.00,-0.28,2.55,-0.29,2.54,-2.50,-2.33,-2.74,-2.77,-2.79,-2.83
260.58,-0.35,2.46,-0.34,2.47,-2.44,-2.32,-2.73,-2.79,-2.78,-2.81
263.19,-0.40,2.38,-0.40,2.39,-2.39,-2.31,-2.73,-2.79,-2.79,-2.78
265.82,-0.46,2.30,-0.44,2.32,-2.35,-2.30,-2.72,-2.80,-2.79,-2.76
268.48,-0.46,2.28,-0.46,2.28,-2.31,-2.30,-2.71,-2.77,-2.77,-2.74
271.16,-0.46,2.25,-0.45,2.26,-2.29,-2.30,-2.70,-2.75,-2.75,-2.71
273.87,-0.42,2.27,-0.42,2.27,-2.29,-2.30,-2.68,-2.70,-2.71,-2.69
276.61,-0.38,2.28,-0.37,2.29,-2.30,-2.30,-2.66,-2.67,-2.67,-2.66
279.38,-0.32,2.31,-0.32,2.31,-2.31,-2.31,-2.64,-2.63,-2.64,-2.63
282.17,-0.27,2.34,-0.26,2.35,-2.34,-2.31,-2.62,-2.60,-2.60,-2.61
284.99,-0.21,2.36,-0.19,2.38,-2.36,-2.32,-2.59,-2.57,-2.55,-2.57
287.84,-0.13,2.42,-0.15,2.40,-2.37,-2.32,-2.57,-2.50,-2.52,-2.55
290.72,-0.12,2.40,-0.12,2.40,-2.38,-2.33,-2.54,-2.49,-2.50,-2.52
293.63,-0.13,2.36,-0.11,2.38,-2.37,-2.34,-2.52,-2.49,-2.48,-2.49
296.57,-0.11,2.35,-0.10,2.36,-2.35,-2.35,-2.49,-2.46,-2.46,-2.46
299.53,-0.10,2.33,-0.09,2.34,-2.33,-2.35,-2.46,-2.43,-2.43,-2.43
302.53,-0.09,2.32,-0.11,2.29,-2.31,-2.36,-2.44,-2.40,-2.42,-2.41
305.55,-0.12,2.25,-0.12,2.26,-2.29,-2.37,-2.41,-2.40,-2.40,-2.37
308.61,-0.17,2.18,-0.10,2.24,-2.26,-2.38,-2.38,-2.43,-2.37,-2.35
311.69,-0.05,2.27,-0.08,2.24,-2.25,-2.39,-2.36,-2.30,-2.33,-2.32
314.81,-0.04,2.26,-0.06,2.25,-2.24,-2.40,-2.33,-2.28,-2.30,-2.30
317.96,-0.06,2.22,-0.04,2.24,-2.23,-2.41,-2.31,-2.29,-2.27,-2.28
321.14,-0.06,2.21,-0.05,2.21,-2.22,-2.42,-2.28,-2.27,-2.27,-2.27
324.35,-0.06,2.19,-0.06,2.20,-2.19,-2.43,-2.26,-2.25,-2.25,-2.25
327.59,-0.06,2.18,-0.05,2.19,-2.17,-2.44,-2.24,-2.22,-2.21,-2.24
330.87,-0.06,2.17,-0.05,2.17,-2.14,-2.45,-2.22,-2.19,-2.19,-2.23
334.18,-0.06,2.15,-0.09,2.12,-2.10,-2.46,-2.20,-2.16,-2.20,-2.21
337.52,-0.16,2.04,-0.15,2.05,-2.07,-2.47,-2.19,-2.22,-2.21,-2.20
340.90,-0.23,1.96,-0.19,2.00,-2.04,-2.48,-2.17,-2.26,-2.23,-2.19
344.30,-0.21,1.97,-0.21,1.97,-2.01,-2.49,-2.16,-2.22,-2.22,-2.18
347.75,-0.18,2.00,-0.18,2.00,-2.00,-2.50,-2.15,-2.17,-2.18,-2.18
351.23,-0.17,2.00,-0.17,2.00,-1.99,-2.50,-2.14,-2.16,-2.17,-2.17
354.74,-0.16,2.02,-0.19,1.99,-1.99,-2.51,-2.13,-2.15,-2.18,-2.18
358.28,-0.23,1.94,-0.17,2.00,-2.00,-2.52,-2.12,-2.23,-2.18,-2.17
361.87,-0.17,2.00,-0.15,2.02,-2.02,-2.53,-2.12,-2.19,-2.17,-2.17
365.49,-0.06,2.10,-0.12,2.04,-2.03,-2.54,-2.11,-2.09,-2.16,-2.16
369.14,-0.12,2.05,-0.10,2.07,-2.04,-2.55,-2.11,-2.16,-2.14,-2.17
372.83,-0.13,2.04,-0.11,2.07,-2.05,-2.55,-2.11,-2.18,-2.16,-2.17
376.56,-0.12,2.06,-0.12,2.05,-2.06,-2.56,-2.11,-2.18,-2.19,-2.18
380.33,-0.12,2.05,-0.12,2.06,-2.07,-2.57,-2.12,-2.19,-2.18,-2.17
384.13,-0.11,2.06,-0.11,2.07,-2.07,-2.58,-2.12,-2.18,-2.18,-2.17
387.97,-0.11,2.07,-0.10,2.08,-2.08,-2.58,-2.13,-2.18,-2.18,-2.18
391.85,-0.10,2.09,-0.10,2.09,-2.08,-2.59,-2.13,-2.18,-2.18,-2.19
395.77,-0.10,2.08,-0.10,2.09,-2.09,-2.60,-2.14,-2.18,-2.18,-2.18
399.73,-0.10,2.09,-0.10,2.09,-2.09,-2.60,-2.15,-2.19,-2.19,-2.19
403.72,-0.10,2.09,-0.10,2.10,-2.10,-2.61,-2.16,-2.19,-2.20,-2.19
407.76,-0.11,2.10,-0.10,2.10,-2.10,-2.62,-2.18,-2.21,-2.20,-2.21
411.84,-0.11,2.10,-0.11,2.10,-2.10,-2.62,-2.19,-2.21,-2.21,-2.21
415.96,-0.11,2.10,-0.11,2.11,-2.11,-2.63,-2.20,-2.21,-2.21,-2.21
420.12,-0.11,2.10,-0.10,2.11,-2.11,-2.63,-2.22,-2.21,-2.21,-2.21
424.32,-0.10,2.11,-0.10,2.11,-2.11,-2.64,-2.23,-2.21,-2.21,-2.21
428.56,-0.09,2.11,-0.09,2.12,-2.11,-2.64,-2.25,-2.20,-2.20,-2.20
432.85,-0.08,2.11,-0.07,2.12,-2.12,-2.65,-2.26,-2.20,-2.19,-2.19
437.18,-0.05,2.13,-0.05,2.12,-2.13,-2.65,-2.28,-2.18,-2.18,-2.18
441.55,-0.02,2.12,-0.01,2.13,-2.14,-2.65,-2.29,-2.15,-2.15,-2.14
445.96,0.03,2.14,0.03,2.15,-2.15,-2.66,-2.30,-2.11,-2.11,-2.11
450.42,0.08,2.16,0.08,2.16,-2.16,-2.66,-2.32,-2.07,-2.07,-2.08
454.93,0.14,2.17,0.14,2.18,-2.18,-2.67,-2.33,-2.03,-2.03,-2.03
459.48,0.20,2.19,0.20,2.19,-2.20,-2.67,-2.34,-2.00,-2.00,-1.99
464.07,0.26,2.20,0.26,2.20,-2.22,-2.67,-2.36,-1.96,-1.96,-1.94
468.71,0.31,2.19,0.32,2.20,-2.23,-2.68,-2.37,-1.91,-1.91,-1.88
