frequency,raw,error,smoothed,error_smoothed,equalization,parametric_eq,fixed_band_eq,equalized_raw,equalized_smoothed,target
20.00,2.68,-5.84,2.70,-5.83,5.83,5.49,2.08,8.51,8.53,8.52
20.20,2.72,-5.79,2.72,-5.79,5.79,5.47,2.14,8.51,8.52,8.51
20.40,2.76,-5.74,2.75,-5.75,5.75,5.46,2.21,8.51,8.51,8.50
20.61,2.80,-5.70,2.78,-5.71,5.71,5.45,2.27,8.51,8.50,8.50
20.81,2.84,-5.64,2.82,-5.67,5.67,5.43,2.34,8.51,8.49,8.48
21.02,2.88,-5.60,2.85,-5.63,5.63,5.42,2.41,8.51,8.48,8.48
21.23,2.90,-5.57,2.88,-5.59,5.59,5.40,2.49,8.49,8.47,8.47
21.44,2.92,-5.56,2.92,-5.55,5.55,5.38,2.56,8.47,8.47,8.48
21.66,2.94,-5.53,2.95,-5.51,5.51,5.37,2.64,8.45,8.46,8.47
21.87,2.96,-5.50,2.99,-5.47,5.47,5.35,2.72,8.42,8.45,8.46
22.09,2.99,-5.46,3.03,-5.42,5.42,5.33,2.80,8.41,8.45,8.45
22.31,3.04,-5.41,3.06,-5.38,5.38,5.31,2.89,8.42,8.44,8.45
22.54,3.09,-5.35,3.11,-5.33,5.33,5.30,2.97,8.42,8.44,8.44
22.76,3.14,-5.29,3.15,-5.29,5.29,5.28,3.06,8.43,8.43,8.43
22.99,3.19,-5.23,3.19,-5.24,5.24,5.26,3.15,8.43,8.43,8.42
23.22,3.24,-5.17,3.24,-5.19,5.19,5.24,3.25,8.43,8.43,8.41
23.45,3.29,-5.13,3.28,-5.14,5.14,5.22,3.34,8.43,8.42,8.42
23.69,3.34,-5.07,3.33,-5.10,5.10,5.20,3.44,8.43,8.42,8.41
23.92,3.39,-5.02,3.37,-5.05,5.05,5.17,3.54,8.44,8.42,8.41
24.16,3.43,-4.99,3.41,-5.01,5.01,5.15,3.64,8.44,8.42,8.42
24.40,3.46,-4.97,3.44,-4.98,4.98,5.13,3.74,8.44,8.42,8.43
24.65,3.49,-4.94,3.47,-4.95,4.95,5.11,3.85,8.44,8.42,8.43
24.89,3.52,-4.91,3.50,-4.92,4.92,5.08,3.95,8.44,8.42,8.43
25.14,3.54,-4.88,3.52,-4.90,4.90,5.06,4.06,8.44,8.43,8.42
25.39,3.55,-4.87,3.55,-4.88,4.88,5.03,4.17,8.43,8.43,8.42
25.65,3.56,-4.86,3.57,-4.86,4.86,5.01,4.27,8.42,8.43,8.42
25.91,3.57,-4.86,3.59,-4.84,4.84,4.98,4.38,8.41,8.43,8.43
26.16,3.59,-4.85,3.61,-4.82,4.82,4.96,4.49,8.41,8.43,8.44
26.43,3.62,-4.82,3.63,-4.80,4.80,4.93,4.60,8.42,8.44,8.44
26.69,3.65,-4.79,3.66,-4.78,4.78,4.91,4.70,8.43,8.44,8.44
26.96,3.68,-4.75,3.68,-4.75,4.75,4.88,4.81,8.43,8.43,8.43
27.23,3.71,-4.72,3.71,-4.73,4.73,4.85,4.91,8.44,8.43,8.43
27.50,3.74,-4.69,3.73,-4.70,4.70,4.82,5.01,8.44,8.44,8.43
27.77,3.77,-4.67,3.76,-4.68,4.68,4.80,5.10,8.44,8.44,8.44
28.05,3.80,-4.64,3.79,-4.65,4.65,4.77,5.20,8.44,8.44,8.44
28.33,3.82,-4.60,3.82,-4.61,4.61,4.74,5.28,8.43,8.44,8.42
28.62,3.85,-4.57,3.86,-4.58,4.58,4.71,5.37,8.43,8.43,8.42
28.90,3.88,-4.55,3.89,-4.54,4.54,4.68,5.44,8.42,8.43,8.43
29.19,3.91,-4.52,3.92,-4.51,4.51,4.65,5.51,8.42,8.43,8.43
29.48,3.94,-4.48,3.95,-4.48,4.48,4.62,5.57,8.42,8.42,8.42
29.78,3.97,-4.45,3.97,-4.45,4.45,4.59,5.63,8.42,8.42,8.42
30.08,4.00,-4.43,3.99,-4.43,4.43,4.56,5.67,8.42,8.42,8.43
30.38,4.03,-4.39,4.01,-4.40,4.40,4.52,5.71,8.43,8.41,8.42
30.68,4.06,-4.34,4.02,-4.38,4.38,4.49,5.73,8.44,8.40,8.40
30.99,4.09,-4.31,4.04,-4.36,4.36,4.46,5.75,8.44,8.40,8.40
31.30,4.09,-4.30,4.06,-4.33,4.33,4.42,5.76,8.42,8.39,8.39
31.61,4.09,-4.29,4.08,-4.30,4.30,4.39,5.76,8.39,8.39,8.38
31.93,4.09,-4.28,4.10,-4.28,4.28,4.36,5.75,8.36,8.38,8.37
32.24,4.09,-4.28,4.12,-4.25,4.25,4.32,5.73,8.34,8.37,8.37
32.57,4.09,-4.26,4.14,-4.22,4.22,4.29,5.70,8.31,8.37,8.35
32.89,4.09,-4.26,4.16,-4.20,4.20,4.25,5.66,8.29,8.36,8.35
33.22,4.13,-4.22,4.17,-4.18,4.18,4.22,5.61,8.31,8.35,8.35
33.55,4.20,-4.14,4.19,-4.16,4.16,4.18,5.55,8.36,8.35,8.34
33.89,4.27,-4.08,4.21,-4.13,4.13,4.15,5.49,8.40,8.34,8.35
34.23,4.29,-4.04,4.23,-4.11,4.11,4.11,5.42,8.40,8.34,8.33
34.57,4.29,-4.04,4.25,-4.08,4.08,4.07,5.35,8.37,8.33,8.33
34.92,4.29,-4.03,4.27,-4.06,4.06,4.04,5.27,8.35,8.33,8.32
35.27,4.29,-4.04,4.29,-4.03,4.03,4.00,5.18,8.32,8.32,8.33
35.62,4.30,-4.01,4.31,-4.00,4.00,3.96,5.09,8.30,8.31,8.31
35.97,4.30,-4.01,4.33,-3.97,3.97,3.92,5.00,8.27,8.30,8.31
36.33,4.33,-3.96,4.35,-3.94,3.94,3.88,4.90,8.27,8.29,8.29
36.70,4.36,-3.92,4.36,-3.91,3.91,3.84,4.81,8.27,8.27,8.28
37.06,4.39,-3.87,4.37,-3.88,3.88,3.80,4.71,8.27,8.26,8.26
37.43,4.39,-3.85,4.39,-3.85,3.85,3.77,4.61,8.24,8.24,8.24
37.81,4.39,-3.83,4.40,-3.81,3.81,3.73,4.51,8.20,8.22,8.22
38.19,4.41,-3.78,4.42,-3.77,3.77,3.69,4.41,8.18,8.19,8.19
38.57,4.45,-3.72,4.44,-3.72,3.72,3.64,4.31,8.17,8.17,8.17
38.95,4.49,-3.65,4.47,-3.67,3.67,3.60,4.21,8.16,8.14,8.14
39.34,4.49,-3.61,4.49,-3.63,3.63,3.56,4.11,8.11,8.11,8.10
39.74,4.49,-3.59,4.51,-3.58,3.58,3.52,4.01,8.07,8.09,8.08
40.14,4.50,-3.55,4.53,-3.54,3.54,3.48,3.92,8.03,8.06,8.05
40.54,4.54,-3.49,4.54,-3.49,3.49,3.44,3.82,8.03,8.03,8.03
40.94,4.58,-3.42,4.55,-3.45,3.45,3.40,3.73,8.03,8.01,8.00
41.35,4.59,-3.39,4.57,-3.41,3.41,3.35,3.64,8.00,7.98,7.98
41.76,4.60,-3.34,4.58,-3.37,3.37,3.31,3.55,7.97,7.95,7.94
42.18,4.60,-3.32,4.59,-3.34,3.34,3.27,3.46,7.94,7.93,7.92
42.60,4.60,-3.30,4.59,-3.30,3.30,3.22,3.38,7.90,7.90,7.90
43.03,4.60,-3.27,4.60,-3.27,3.27,3.18,3.30,7.87,7.87,7.87
43.46,4.60,-3.24,4.60,-3.25,3.25,3.14,3.22,7.85,7.85,7.84
43.90,4.60,-3.22,4.59,-3.23,3.23,3.09,3.14,7.82,7.82,7.82
44.33,4.60,-3.18,4.59,-3.20,3.20,3.05,3.07,7.80,7.79,7.78
44.78,4.60,-3.15,4.59,-3.17,3.17,3.00,3.00,7.77,7.76,7.75
45.23,4.60,-3.14,4.59,-3.13,3.13,2.96,2.93,7.73,7.73,7.74
45.68,4.60,-3.09,4.60,-3.09,3.09,2.91,2.86,7.69,7.69,7.69
46.13,4.60,-3.05,4.61,-3.04,3.04,2.87,2.80,7.64,7.65,7.65
46.60,4.60,-3.02,4.62,-2.99,2.99,2.82,2.73,7.59,7.62,7.62
47.06,4.60,-2.98,4.64,-2.93,2.93,2.78,2.67,7.53,7.58,7.58
47.53,4.60,-2.95,4.66,-2.87,2.87,2.73,2.62,7.47,7.53,7.55
48.01,4.60,-2.89,4.68,-2.81,2.81,2.69,2.56,7.41,7.49,7.49
48.49,4.70,-2.74,4.70,-2.75,2.75,2.64,2.51,7.45,7.45,7.44
48.97,4.79,-2.61,4.72,-2.69,2.69,2.59,2.46,7.47,7.40,7.40
49.46,4.80,-2.56,4.74,-2.62,2.62,2.55,2.41,7.42,7.36,7.36
49.96,4.80,-2.49,4.75,-2.56,2.56,2.50,2.36,7.36,7.31,7.29
50.46,4.80,-2.45,4.77,-2.49,2.49,2.45,2.31,7.29,7.26,7.25
50.96,4.80,-2.41,4.79,-2.43,2.43,2.40,2.27,7.23,7.22,7.21
51.47,4.80,-2.37,4.80,-2.37,2.37,2.36,2.22,7.17,7.17,7.17
51.99,4.80,-2.32,4.81,-2.32,2.32,2.31,2.18,7.12,7.12,7.12
52.51,4.80,-2.28,4.81,-2.27,2.27,2.26,2.14,7.06,7.08,7.08
53.03,4.80,-2.25,4.81,-2.22,2.22,2.21,2.10,7.01,7.03,7.05
53.56,4.80,-2.19,4.81,-2.17,2.17,2.16,2.06,6.97,6.99,6.99
54.10,4.80,-2.14,4.80,-2.14,2.14,2.12,2.02,6.94,6.94,6.94
54.64,4.80,-2.10,4.80,-2.10,2.10,2.07,1.99,6.90,6.90,6.90
55.18,4.80,-2.04,4.80,-2.06,2.06,2.02,1.95,6.86,6.86,6.84
55.74,4.80,-1.99,4.80,-2.02,2.02,1.97,1.91,6.81,6.81,6.79
56.29,4.80,-1.96,4.80,-1.97,1.97,1.92,1.88,6.77,6.77,6.76
56.86,4.80,-1.92,4.80,-1.93,1.93,1.87,1.84,6.73,6.73,6.72
57.42,4.80,-1.86,4.80,-1.88,1.88,1.82,1.80,6.68,6.68,6.66
58.00,4.80,-1.83,4.79,-1.84,1.84,1.77,1.77,6.64,6.64,6.63
58.58,4.80,-1.80,4.79,-1.80,1.80,1.72,1.73,6.60,6.59,6.60
59.16,4.80,-1.76,4.79,-1.75,1.75,1.67,1.69,6.55,6.54,6.56
59.76,4.80,-1.72,4.79,-1.70,1.70,1.62,1.65,6.50,6.49,6.52
60.35,4.80,-1.65,4.80,-1.64,1.64,1.57,1.61,6.44,6.44,6.45
60.96,4.80,-1.60,4.80,-1.59,1.59,1.52,1.57,6.38,6.39,6.40
61.57,4.80,-1.53,4.81,-1.53,1.53,1.47,1.53,6.32,6.33,6.33
62.18,4.80,-1.46,4.81,-1.46,1.46,1.42,1.49,6.26,6.28,6.26
62.80,4.80,-1.40,4.82,-1.39,1.39,1.37,1.45,6.19,6.22,6.20
63.43,4.80,-1.34,4.83,-1.33,1.33,1.32,1.40,6.12,6.16,6.14
64.07,4.81,-1.28,4.84,-1.26,1.26,1.27,1.36,6.06,6.10,6.09
64.71,4.87,-1.16,4.85,-1.18,1.18,1.21,1.31,6.05,6.04,6.03
65.35,4.90,-1.07,4.87,-1.11,1.11,1.16,1.26,6.01,5.98,5.97
66.01,4.90,-1.01,4.88,-1.04,1.04,1.11,1.21,5.94,5.92,5.91
66.67,4.90,-0.97,4.89,-0.97,0.97,1.06,1.16,5.87,5.86,5.87
67.33,4.90,-0.89,4.89,-0.91,0.91,1.01,1.11,5.80,5.80,5.79
68.01,4.90,-0.84,4.89,-0.84,0.84,0.96,1.05,5.74,5.73,5.74
68.69,4.90,-0.77,4.89,-0.78,0.78,0.90,1.00,5.68,5.67,5.67
69.37,4.90,-0.72,4.89,-0.72,0.72,0.85,0.95,5.62,5.61,5.62
70.07,4.90,-0.65,4.88,-0.66,0.66,0.80,0.89,5.56,5.55,5.55
70.77,4.90,-0.59,4.87,-0.61,0.61,0.75,0.83,5.51,5.48,5.49
71.48,4.88,-0.54,4.86,-0.56,0.56,0.69,0.77,5.44,5.42,5.42
72.19,4.85,-0.50,4.85,-0.51,0.51,0.64,0.72,5.36,5.36,5.35
72.91,4.81,-0.48,4.84,-0.46,0.46,0.59,0.66,5.26,5.29,5.29
73.64,4.80,-0.42,4.83,-0.40,0.40,0.53,0.60,5.20,5.23,5.22
74.38,4.80,-0.36,4.82,-0.35,0.35,0.48,0.54,5.15,5.17,5.16
75.12,4.80,-0.29,4.81,-0.30,0.30,0.43,0.47,5.10,5.11,5.09
75.87,4.80,-0.25,4.80,-0.24,0.24,0.37,0.41,5.04,5.05,5.05
76.63,4.80,-0.18,4.80,-0.19,0.19,0.32,0.35,4.99,4.99,4.98
77.40,4.80,-0.13,4.80,-0.14,0.14,0.27,0.29,4.94,4.93,4.93
78.17,4.80,-0.07,4.80,-0.08,0.08,0.21,0.22,4.88,4.88,4.87
78.95,4.80,-0.03,4.80,-0.02,0.02,0.16,0.16,4.82,4.82,4.83
79.74,4.80,0.03,4.80,0.03,-0.03,0.11,0.10,4.77,4.77,4.77
80.54,4.80,0.09,4.80,0.09,-0.09,0.05,0.03,4.71,4.71,4.71
81.35,4.80,0.14,4.80,0.14,-0.14,-0.00,-0.03,4.66,4.66,4.66
82.16,4.80,0.19,4.79,0.19,-0.19,-0.06,-0.10,4.61,4.60,4.61
82.98,4.80,0.25,4.79,0.24,-0.24,-0.11,-0.16,4.56,4.55,4.55
83.81,4.80,0.31,4.78,0.29,-0.29,-0.17,-0.23,4.51,4.49,4.49
84.65,4.80,0.37,4.77,0.34,-0.34,-0.22,-0.30,4.45,4.43,4.43
85.50,4.80,0.44,4.77,0.40,-0.40,-0.28,-0.36,4.40,4.37,4.36
86.35,4.76,0.46,4.76,0.45,-0.45,-0.33,-0.43,4.31,4.31,4.30
87.22,4.70,0.45,4.75,0.50,-0.50,-0.39,-0.50,4.20,4.25,4.25
88.09,4.70,0.52,4.73,0.54,-0.54,-0.44,-0.57,4.15,4.19,4.18
88.97,4.70,0.57,4.72,0.59,-0.59,-0.50,-0.64,4.11,4.13,4.13
89.86,4.70,0.65,4.70,0.64,-0.64,-0.55,-0.71,4.06,4.06,4.05
90.76,4.70,0.71,4.69,0.70,-0.70,-0.61,-0.78,4.00,3.99,3.99
91.66,4.70,0.78,4.67,0.75,-0.75,-0.66,-0.85,3.95,3.92,3.92
92.58,4.70,0.84,4.66,0.80,-0.80,-0.72,-0.92,3.89,3.85,3.86
93.51,4.66,0.87,4.64,0.86,-0.86,-0.77,-0.99,3.80,3.78,3.79
94.44,4.61,0.89,4.63,0.92,-0.92,-0.83,-1.06,3.68,3.71,3.72
95.39,4.60,0.96,4.62,0.99,-0.99,-0.89,-1.13,3.61,3.63,3.64
96.34,4.60,1.04,4.61,1.05,-1.05,-0.94,-1.21,3.55,3.56,3.56
97.30,4.59,1.11,4.60,1.12,-1.12,-1.00,-1.28,3.47,3.48,3.48
98.28,4.58,1.19,4.59,1.19,-1.19,-1.05,-1.35,3.39,3.40,3.39
99.26,4.57,1.27,4.57,1.26,-1.26,-1.11,-1.43,3.31,3.32,3.30
100.25,4.55,1.33,4.55,1.32,-1.32,-1.17,-1.50,3.23,3.23,3.22
101.25,4.53,1.38,4.53,1.38,-1.38,-1.22,-1.57,3.15,3.15,3.15
102.27,4.52,1.46,4.51,1.44,-1.44,-1.28,-1.65,3.08,3.07,3.06
103.29,4.51,1.53,4.49,1.50,-1.50,-1.34,-1.72,3.01,2.99,2.98
104.32,4.49,1.58,4.46,1.56,-1.56,-1.39,-1.79,2.93,2.90,2.91
105.37,4.46,1.63,4.43,1.61,-1.61,-1.45,-1.87,2.85,2.82,2.83
106.42,4.44,1.70,4.41,1.67,-1.67,-1.51,-1.94,2.77,2.74,2.74
107.48,4.42,1.77,4.38,1.72,-1.72,-1.56,-2.01,2.70,2.66,2.65
108.56,4.36,1.77,4.35,1.77,-1.77,-1.62,-2.08,2.59,2.58,2.59
109.64,4.28,1.78,4.33,1.82,-1.82,-1.67,-2.15,2.46,2.51,2.50
110.74,4.25,1.83,4.30,1.87,-1.87,-1.73,-2.21,2.38,2.43,2.42
111.85,4.23,1.88,4.28,1.92,-1.92,-1.79,-2.28,2.30,2.35,2.35
112.97,4.22,1.94,4.25,1.97,-1.97,-1.84,-2.34,2.24,2.28,2.28
114.10,4.22,2.01,4.23,2.02,-2.02,-1.90,-2.40,2.20,2.20,2.21
115.24,4.22,2.09,4.20,2.07,-2.07,-1.96,-2.46,2.15,2.13,2.13
116.39,4.22,2.17,4.18,2.12,-2.12,-2.01,-2.52,2.10,2.06,2.05
117.55,4.22,2.23,4.17,2.17,-2.17,-2.07,-2.57,2.05,1.99,1.99
118.73,4.16,2.25,4.15,2.22,-2.22,-2.13,-2.62,1.94,1.93,1.91
119.92,4.13,2.28,4.14,2.27,-2.27,-2.18,-2.67,1.85,1.86,1.85
121.12,4.14,2.34,4.13,2.33,-2.33,-2.24,-2.72,1.81,1.80,1.80
122.33,4.14,2.41,4.12,2.39,-2.39,-2.29,-2.76,1.75,1.73,1.73
123.55,4.10,2.42,4.11,2.44,-2.44,-2.35,-2.80,1.66,1.67,1.68
124.79,4.06,2.44,4.10,2.50,-2.50,-2.40,-2.83,1.56,1.61,1.62
126.03,4.07,2.52,4.10,2.55,-2.55,-2.46,-2.86,1.52,1.55,1.55
127.29,4.08,2.59,4.10,2.61,-2.61,-2.51,-2.89,1.47,1.49,1.49
128.57,4.08,2.65,4.10,2.67,-2.67,-2.57,-2.91,1.41,1.43,1.43
129.85,4.09,2.73,4.10,2.73,-2.73,-2.62,-2.93,1.36,1.37,1.36
131.15,4.09,2.79,4.09,2.79,-2.79,-2.68,-2.95,1.30,1.31,1.30
132.46,4.10,2.86,4.09,2.84,-2.84,-2.73,-2.97,1.26,1.25,1.24
133.79,4.10,2.92,4.08,2.90,-2.90,-2.78,-2.98,1.20,1.19,1.18
135.12,4.11,2.99,4.07,2.95,-2.95,-2.84,-2.99,1.16,1.13,1.12
136.48,4.11,3.03,4.07,3.00,-3.00,-2.89,-3.00,1.11,1.07,1.08
137.84,4.11,3.09,4.06,3.05,-3.05,-2.94,-3.01,1.06,1.01,1.02
139.22,4.08,3.14,4.04,3.09,-3.09,-3.00,-3.01,0.99,0.95,0.94
140.61,4.03,3.13,4.02,3.13,-3.13,-3.05,-3.02,0.90,0.90,0.90
142.02,3.98,3.14,4.01,3.17,-3.17,-3.10,-3.02,0.81,0.84,0.84
143.44,3.94,3.17,3.99,3.20,-3.20,-3.15,-3.02,0.73,0.78,0.77
144.87,3.92,3.20,3.96,3.24,-3.24,-3.20,-3.03,0.68,0.73,0.72
146.32,3.91,3.24,3.94,3.27,-3.27,-3.25,-3.03,0.64,0.67,0.67
147.78,3.91,3.30,3.91,3.30,-3.30,-3.30,-3.03,0.61,0.62,0.61
149.26,3.91,3.35,3.89,3.33,-3.33,-3.35,-3.03,0.58,0.56,0.56
150.75,3.91,3.42,3.86,3.36,-3.36,-3.40,-3.03,0.55,0.50,0.49
152.26,3.85,3.40,3.84,3.40,-3.40,-3.44,-3.04,0.45,0.45,0.45
153.78,3.81,3.42,3.83,3.44,-3.44,-3.49,-3.04,0.37,0.39,0.39
155.32,3.82,3.48,3.81,3.47,-3.47,-3.54,-3.05,0.35,0.33,0.34
156.88,3.82,3.54,3.79,3.51,-3.51,-3.58,-3.06,0.30,0.28,0.28
158.44,3.75,3.53,3.77,3.56,-3.56,-3.63,-3.06,0.19,0.22,0.22
160.03,3.72,3.56,3.75,3.60,-3.60,-3.67,-3.08,0.12,0.16,0.16
161.63,3.71,3.61,3.73,3.63,-3.63,-3.72,-3.09,0.08,0.10,0.10
163.24,3.71,3.68,3.70,3.67,-3.67,-3.76,-3.10,0.04,0.04,0.03
164.88,3.71,3.73,3.68,3.70,-3.70,-3.80,-3.12,0.01,-0.02,-0.02
166.53,3.70,3.79,3.65,3.74,-3.74,-3.84,-3.14,-0.04,-0.08,-0.09
168.19,3.64,3.78,3.63,3.77,-3.77,-3.88,-3.16,-0.13,-0.14,-0.14
169.87,3.59,3.79,3.61,3.81,-3.81,-3.92,-3.18,-0.22,-0.20,-0.20
171.57,3.58,3.85,3.58,3.84,-3.84,-3.96,-3.21,-0.26,-0.26,-0.27
173.29,3.58,3.91,3.56,3.88,-3.88,-3.99,-3.24,-0.30,-0.32,-0.33
175.02,3.54,3.92,3.53,3.91,-3.91,-4.03,-3.27,-0.37,-0.38,-0.38
176.77,3.48,3.91,3.52,3.95,-3.95,-4.06,-3.31,-0.47,-0.43,-0.43
178.54,3.47,3.96,3.50,3.98,-3.98,-4.10,-3.34,-0.51,-0.48,-0.49
180.32,3.47,4.02,3.48,4.01,-4.01,-4.13,-3.38,-0.54,-0.54,-0.55
182.13,3.47,4.06,3.46,4.04,-4.04,-4.16,-3.42,-0.57,-0.59,-0.59
183.95,3.42,4.06,3.44,4.07,-4.07,-4.19,-3.47,-0.66,-0.64,-0.64
185.79,3.40,4.09,3.42,4.11,-4.11,-4.22,-3.51,-0.71,-0.69,-0.69
187.65,3.41,4.14,3.41,4.15,-4.15,-4.25,-3.56,-0.74,-0.73,-0.73
189.52,3.43,4.21,3.40,4.18,-4.18,-4.28,-3.62,-0.75,-0.78,-0.78
191.42,3.42,4.23,3.39,4.21,-4.21,-4.30,-3.67,-0.79,-0.82,-0.81
193.33,3.38,4.24,3.38,4.24,-4.24,-4.33,-3.73,-0.87,-0.86,-0.86
195.27,3.37,4.28,3.37,4.27,-4.27,-4.35,-3.78,-0.91,-0.91,-0.91
197.22,3.36,4.32,3.35,4.30,-4.30,-4.37,-3.84,-0.94,-0.95,-0.96
199.19,3.32,4.31,3.33,4.32,-4.32,-4.39,-3.91,-1.00,-0.99,-0.99
201.18,3.30,4.34,3.31,4.34,-4.34,-4.41,-3.97,-1.04,-1.03,-1.04
203.19,3.31,4.38,3.29,4.36,-4.36,-4.43,-4.03,-1.05,-1.07,-1.07
205.23,3.31,4.42,3.26,4.37,-4.37,-4.44,-4.10,-1.07,-1.11,-1.11
207.28,3.25,4.39,3.24,4.39,-4.39,-4.46,-4.17,-1.14,-1.15,-1.14
209.35,3.21,4.39,3.21,4.40,-4.40,-4.47,-4.23,-1.19,-1.19,-1.18
211.44,3.19,4.42,3.18,4.41,-4.41,-4.48,-4.30,-1.22,-1.23,-1.23
213.56,3.12,4.38,3.15,4.41,-4.41,-4.49,-4.37,-1.30,-1.26,-1.26
215.69,3.10,4.40,3.12,4.42,-4.42,-4.50,-4.43,-1.33,-1.30,-1.30
217.85,3.09,4.42,3.10,4.43,-4.43,-4.51,-4.49,-1.34,-1.33,-1.33
220.03,3.09,4.47,3.07,4.43,-4.43,-4.52,-4.56,-1.34,-1.36,-1.38
222.23,3.05,4.45,3.04,4.43,-4.43,-4.52,-4.62,-1.38,-1.39,-1.40
224.45,2.99,4.42,3.01,4.43,-4.43,-4.53,-4.67,-1.45,-1.42,-1.43
226.70,2.99,4.45,2.99,4.44,-4.44,-4.53,-4.73,-1.45,-1.45,-1.46
228.96,2.99,4.47,2.97,4.44,-4.44,-4.53,-4.78,-1.45,-1.47,-1.48
231.25,2.93,4.42,2.95,4.44,-4.44,-4.53,-4.83,-1.51,-1.49,-1.49
233.57,2.91,4.43,2.93,4.44,-4.44,-4.52,-4.87,-1.53,-1.51,-1.52
235.90,2.92,4.45,2.91,4.44,-4.44,-4.52,-4.91,-1.52,-1.52,-1.53
238.26,2.90,4.45,2.90,4.43,-4.43,-4.52,-4.94,-1.53,-1.53,-1.55
240.64,2.86,4.40,2.88,4.43,-4.43,-4.51,-4.96,-1.57,-1.55,-1.54
243.05,2.86,4.41,2.87,4.43,-4.43,-4.50,-4.98,-1.57,-1.55,-1.55
245.48,2.88,4.45,2.86,4.42,-4.42,-4.49,-5.00,-1.54,-1.56,-1.57
247.93,2.89,4.47,2.85,4.42,-4.42,-4.48,-5.00,-1.53,-1.57,-1.58
250.41,2.84,4.41,2.83,4.41,-4.41,-4.47,-5.00,-1.57,-1.58,-1.57
252.92,2.79,4.36,2.81,4.39,-4.39,-4.46,-5.00,-1.60,-1.58,-1.57
255.45,2.77,4.36,2.79,4.38,-4.38,-4.44,-4.98,-1.61,-1.59,-1.59
258.00,2.77,4.37,2.77,4.37,-4.37,-4.43,-4.96,-1.60,-1.60,-1.60
260.58,2.77,4.38,2.75,4.36,-4.36,-4.41,-4.94,-1.59,-1.61,-1.61
263.19,2.77,4.39,2.72,4.35,-4.35,-4.39,-4.91,-1.58,-1.62,-1.62
265.82,2.77,4.41,2.70,4.33,-4.33,-4.37,-4.87,-1.56,-1.64,-1.64
268.48,2.65,4.29,2.67,4.32,-4.32,-4.35,-4.83,-1.67,-1.65,-1.64
271.16,2.58,4.24,2.64,4.30,-4.30,-4.33,-4.78,-1.72,-1.66,-1.66
273.87,2.56,4.23,2.61,4.28,-4.28,-4.31,-4.73,-1.72,-1.67,-1.67
276.61,2.56,4.25,2.57,4.26,-4.26,-4.29,-4.67,-1.70,-1.69,-1.69
279.38,2.56,4.28,2.54,4.24,-4.24,-4.26,-4.61,-1.68,-1.70,-1.72
282.17,2.56,4.28,2.52,4.22,-4.22,-4.24,-4.55,-1.66,-1.71,-1.72
284.99,2.54,4.26,2.49,4.20,-4.20,-4.21,-4.49,-1.67,-1.71,-1.72
287.84,2.44,4.16,2.46,4.18,-4.18,-4.18,-4.42,-1.75,-1.72,-1.72
290.72,2.39,4.13,2.44,4.16,-4.16,-4.15,-4.35,-1.78,-1.72,-1.74
293.63,2.40,4.13,2.42,4.15,-4.15,-4.13,-4.28,-1.75,-1.73,-1.73
296.57,2.41,4.14,2.40,4.13,-4.13,-4.10,-4.21,-1.72,-1.73,-1.73
299.53,2.34,4.08,2.38,4.12,-4.12,-4.06,-4.14,-1.78,-1.74,-1.74
302.53,2.33,4.06,2.35,4.09,-4.09,-4.03,-4.07,-1.76,-1.74,-1.73
305.55,2.34,4.08,2.33,4.07,-4.07,-4.00,-4.00,-1.73,-1.74,-1.74
308.61,2.35,4.08,2.30,4.04,-4.04,-3.97,-3.93,-1.69,-1.74,-1.73
311.69,2.34,4.09,2.28,4.02,-4.02,-3.93,-3.86,-1.68,-1.74,-1.75
314.81,2.28,4.02,2.25,3.99,-3.99,-3.90,-3.79,-1.71,-1.75,-1.74
317.96,2.21,3.97,2.22,3.97,-3.97,-3.87,-3.73,-1.76,-1.75,-1.76
321.14,2.18,3.93,2.19,3.94,-3.94,-3.83,-3.66,-1.76,-1.75,-1.75
324.35,2.16,3.92,2.16,3.91,-3.91,-3.79,-3.60,-1.75,-1.75,-1.76
327.59,2.08,3.83,2.12,3.88,-3.88,-3.76,-3.54,-1.80,-1.76,-1.75
330.87,2.06,3.82,2.09,3.84,-3.84,-3.72,-3.48,-1.78,-1.76,-1.76
334.18,2.06,3.83,2.05,3.81,-3.81,-3.68,-3.42,-1.75,-1.76,-1.77
337.52,2.06,3.82,2.01,3.78,-3.78,-3.65,-3.37,-1.72,-1.76,-1.76
340.90,1.99,3.76,1.98,3.73,-3.73,-3.61,-3.31,-1.75,-1.76,-1.77
344.30,1.91,3.67,1.94,3.69,-3.69,-3.57,-3.26,-1.79,-1.76,-1.76
347.75,1.87,3.62,1.90,3.65,-3.65,-3.53,-3.22,-1.78,-1.76,-1.75
351.23,1.86,3.63,1.87,3.62,-3.62,-3.49,-3.17,-1.76,-1.75,-1.77
354.74,1.86,3.61,1.84,3.59,-3.59,-3.45,-3.13,-1.73,-1.75,-1.75
358.28,1.81,3.56,1.81,3.55,-3.55,-3.41,-3.09,-1.74,-1.74,-1.75
361.87,1.78,3.53,1.77,3.52,-3.52,-3.37,-3.05,-1.74,-1.74,-1.75
365.49,1.77,3.51,1.74,3.48,-3.48,-3.33,-3.02,-1.71,-1.74,-1.74
369.14,1.70,3.43,1.71,3.44,-3.44,-3.29,-2.99,-1.74,-1.73,-1.73
372.83,1.65,3.37,1.67,3.40,-3.40,-3.25,-2.96,-1.76,-1.73,-1.72
376.56,1.61,3.34,1.64,3.37,-3.37,-3.21,-2.93,-1.76,-1.73,-1.73
380.33,1.60,3.33,1.62,3.34,-3.34,-3.17,-2.90,-1.74,-1.73,-1.73
384.13,1.61,3.33,1.59,3.32,-3.32,-3.13,-2.88,-1.71,-1.73,-1.72
387.97,1.61,3.33,1.55,3.29,-3.29,-3.09,-2.86,-1.68,-1.73,-1.72
391.85,1.55,3.28,1.52,3.25,-3.25,-3.05,-2.84,-1.70,-1.73,-1.73
395.77,1.45,3.19,1.48,3.21,-3.21,-3.01,-2.82,-1.77,-1.74,-1.74
399.73,1.42,3.16,1.44,3.18,-3.18,-2.96,-2.80,-1.76,-1.74,-1.74
403.72,1.42,3.15,1.40,3.14,-3.14,-2.92,-2.79,-1.73,-1.75,-1.73
407.76,1.41,3.16,1.36,3.11,-3.11,-2.88,-2.78,-1.70,-1.75,-1.75
411.84,1.34,3.10,1.33,3.09,-3.09,-2.84,-2.76,-1.75,-1.76,-1.76
415.96,1.31,3.07,1.30,3.06,-3.06,-2.80,-2.75,-1.75,-1.76,-1.76
420.12,1.29,3.06,1.28,3.03,-3.03,-2.76,-2.74,-1.74,-1.75,-1.77
424.32,1.22,2.98,1.25,2.99,-2.99,-2.72,-2.74,-1.78,-1.75,-1.76
428.56,1.16,2.90,1.22,2.96,-2.96,-2.68,-2.73,-1.80,-1.73,-1.74
432.85,1.14,2.86,1.21,2.92,-2.92,-2.63,-2.72,-1.78,-1.71,-1.72
437.18,1.16,2.87,1.20,2.89,-2.89,-2.59,-2.71,-1.73,-1.69,-1.71
441.55,1.20,2.88,1.20,2.86,-2.86,-2.55,-2.70,-1.66,-1.66,-1.68
445.96,1.24,2.88,1.21,2.83,-2.83,-2.51,-2.69,-1.59,-1.62,-1.64
450.42,1.26,2.86,1.22,2.79,-2.79,-2.47,-2.68,-1.53,-1.58,-1.60
454.93,1.26,2.81,1.23,2.76,-2.76,-2.43,-2.67,-1.50,-1.53,-1.55
459.48,1.24,2.73,1.25,2.73,-2.73,-2.39,-2.66,-1.49,-1.48,-1.49
464.07,1.24,2.66,1.27,2.69,-2.69,-2.35,-2.65,-1.45,-1.43,-1.42
468.71,1.23,2.60,1.29,2.66,-2.66,-2.31,-2.64,-1.43,-1.37,-1.37
473.40,1.28,2.59,1.31,2.63,-2.63,-2.27,-2.62,-1.35,-1.32,-1.31
478.13,1.35,2.60,1.33,2.59,-2.59,-2.23,-2.60,-1.24,-1.27,-1.25
482.91,1.39,2.59,1.33,2.55,-2.55,-2.19,-2.59,-1.16,-1.22,-1.20
487.74,1.36,2.53,1.33,2.50,-2.50,-2.15,-2.56,-1.14,-1.17,-1.17
492.62,1.37,2.50,1.32,2.45,-2.45,-2.11,-2.54,-1.08,-1.13,-1.13
497.55,1.32,2.41,1.31,2.41,-2.41,-2.07,-2.51,-1.09,-1.10,-1.09
502.52,1.31,2.38,1.30,2.37,-2.37,-2.03,-2.49,-1.06,-1.07,-1.07
507.55,1.24,2.28,1.28,2.33,-2.33,-1.99,-2.45,-1.09,-1.05,-1.04
512.62,1.22,2.25,1.25,2.29,-2.29,-1.95,-2.42,-1.07,-1.04,-1.03
517.75,1.28,2.30,1.21,2.25,-2.25,-1.91,-2.39,-0.97,-1.04,-1.02
522.93,1.19,2.21,1.17,2.21,-2.21,-1.87,-2.35,-1.02,-1.04,-1.02
528.16,1.04,2.08,1.11,2.16,-2.16,-1.84,-2.31,-1.12,-1.05,-1.04
