frequency,raw,error,smoothed,error_smoothed,equalization,parametric_eq,fixed_band_eq,equalized_raw,equalized_smoothed,target
20.00,-10.00,-8.57,-10.00,-8.57,8.57,8.01,2.52,-1.43,-1.42,-1.42
20.20,-9.89,-8.50,-9.89,-8.50,8.51,7.95,2.59,-1.38,-1.38,-1.38
20.40,-9.79,-8.44,-9.78,-8.44,8.44,7.89,2.67,-1.35,-1.34,-1.34
20.61,-9.68,-8.36,-9.68,-8.37,8.37,7.84,2.74,-1.31,-1.31,-1.32
20.81,-9.58,-8.30,-9.57,-8.30,8.30,7.78,2.82,-1.28,-1.28,-1.27
21.02,-9.47,-8.23,-9.47,-8.23,8.22,7.72,2.90,-1.24,-1.25,-1.23
21.23,-9.37,-8.15,-9.36,-8.15,8.14,7.66,2.98,-1.22,-1.22,-1.21
21.44,-9.25,-8.06,-9.26,-8.06,8.06,7.60,3.07,-1.19,-1.20,-1.19
21.66,-9.16,-7.98,-9.15,-7.98,7.98,7.54,3.16,-1.18,-1.18,-1.17
21.87,-9.04,-7.88,-9.05,-7.89,7.89,7.48,3.25,-1.16,-1.16,-1.16
22.09,-8.94,-7.80,-8.94,-7.80,7.80,7.42,3.34,-1.15,-1.14,-1.14
22.31,-8.83,-7.70,-8.84,-7.70,7.70,7.35,3.43,-1.13,-1.13,-1.13
22.54,-8.74,-7.61,-8.74,-7.61,7.61,7.29,3.53,-1.13,-1.13,-1.12
22.76,-8.64,-7.52,-8.63,-7.52,7.51,7.23,3.63,-1.12,-1.12,-1.11
22.99,-8.53,-7.41,-8.53,-7.42,7.42,7.17,3.73,-1.11,-1.11,-1.11
23.22,-8.43,-7.32,-8.42,-7.32,7.32,7.11,3.84,-1.10,-1.10,-1.10
23.45,-8.32,-7.22,-8.32,-7.22,7.23,7.05,3.94,-1.09,-1.09,-1.09
23.69,-8.22,-7.13,-8.21,-7.13,7.13,6.98,4.05,-1.08,-1.08,-1.08
23.92,-8.10,-7.03,-8.11,-7.04,7.04,6.92,4.16,-1.07,-1.07,-1.07
24.16,-8.01,-6.95,-8.01,-6.95,6.95,6.86,4.27,-1.06,-1.06,-1.05
24.40,-7.90,-6.87,-7.90,-6.86,6.86,6.80,4.39,-1.05,-1.05,-1.03
24.65,-7.81,-6.76,-7.81,-6.77,6.76,6.73,4.50,-1.04,-1.04,-1.04
24.89,-7.70,-6.67,-7.71,-6.67,6.67,6.67,4.62,-1.03,-1.03,-1.03
25.14,-7.60,-6.58,-7.60,-6.58,6.58,6.61,4.74,-1.02,-1.02,-1.02
25.39,-7.50,-6.49,-7.51,-6.49,6.49,6.55,4.86,-1.01,-1.01,-1.01
25.65,-7.41,-6.41,-7.41,-6.40,6.40,6.48,4.98,-1.00,-1.00,-0.99
25.91,-7.31,-6.31,-7.31,-6.31,6.31,6.42,5.10,-1.00,-0.99,-0.99
26.16,-7.20,-6.22,-7.21,-6.22,6.22,6.36,5.21,-0.98,-0.98,-0.98
26.43,-7.11,-6.13,-7.11,-6.13,6.14,6.30,5.33,-0.97,-0.97,-0.97
26.69,-7.01,-6.04,-7.01,-6.05,6.05,6.23,5.45,-0.96,-0.96,-0.96
26.96,-6.92,-5.97,-6.91,-5.97,5.96,6.17,5.56,-0.95,-0.95,-0.94
27.23,-6.82,-5.88,-6.82,-5.88,5.88,6.11,5.67,-0.94,-0.94,-0.93
27.50,-6.73,-5.79,-6.73,-5.79,5.79,6.05,5.78,-0.94,-0.94,-0.93
27.77,-6.63,-5.70,-6.63,-5.70,5.70,5.99,5.89,-0.93,-0.93,-0.93
28.05,-6.54,-5.62,-6.54,-5.62,5.62,5.92,5.99,-0.92,-0.92,-0.91
28.33,-6.45,-5.53,-6.45,-5.53,5.54,5.86,6.08,-0.91,-0.91,-0.91
28.62,-6.36,-5.45,-6.36,-5.45,5.45,5.80,6.17,-0.91,-0.90,-0.90
28.90,-6.27,-5.37,-6.27,-5.37,5.37,5.74,6.25,-0.90,-0.90,-0.89
29.19,-6.18,-5.28,-6.18,-5.29,5.29,5.68,6.32,-0.89,-0.89,-0.89
29.48,-6.09,-5.22,-6.09,-5.21,5.21,5.62,6.39,-0.88,-0.88,-0.86
29.78,-6.01,-5.13,-6.00,-5.13,5.13,5.56,6.44,-0.88,-0.87,-0.87
30.08,-5.92,-5.05,-5.92,-5.06,5.05,5.50,6.49,-0.86,-0.86,-0.86
30.38,-5.84,-4.97,-5.84,-4.98,4.98,5.44,6.53,-0.86,-0.86,-0.86
30.68,-5.76,-4.91,-5.76,-4.91,4.91,5.38,6.55,-0.85,-0.85,-0.84
30.99,-5.68,-4.83,-5.68,-4.83,4.83,5.32,6.57,-0.84,-0.85,-0.84
31.30,-5.61,-4.76,-5.60,-4.76,4.76,5.26,6.58,-0.84,-0.84,-0.84
31.61,-5.53,-4.69,-5.53,-4.69,4.69,5.20,6.57,-0.83,-0.84,-0.83
31.93,-5.46,-4.63,-5.46,-4.63,4.63,5.14,6.56,-0.83,-0.83,-0.82
32.24,-5.39,-4.56,-5.38,-4.56,4.56,5.08,6.53,-0.82,-0.82,-0.82
32.57,-5.31,-4.50,-5.31,-4.50,4.50,5.02,6.49,-0.81,-0.81,-0.80
32.89,-5.24,-4.43,-5.24,-4.44,4.44,4.96,6.45,-0.80,-0.80,-0.80
33.22,-5.18,-4.38,-5.17,-4.38,4.38,4.90,6.39,-0.80,-0.79,-0.79
33.55,-5.11,-4.32,-5.11,-4.32,4.32,4.84,6.33,-0.78,-0.79,-0.78
33.89,-5.05,-4.27,-5.05,-4.27,4.27,4.79,6.26,-0.78,-0.78,-0.77
34.23,-4.99,-4.21,-4.98,-4.21,4.21,4.73,6.18,-0.78,-0.77,-0.77
34.57,-4.93,-4.16,-4.92,-4.16,4.15,4.67,6.10,-0.77,-0.77,-0.76
34.92,-4.86,-4.09,-4.86,-4.10,4.10,4.62,6.01,-0.76,-0.76,-0.76
35.27,-4.81,-4.05,-4.80,-4.04,4.05,4.56,5.92,-0.76,-0.76,-0.75
35.62,-4.75,-3.99,-4.74,-3.99,3.99,4.50,5.82,-0.75,-0.75,-0.75
35.97,-4.69,-3.93,-4.69,-3.94,3.94,4.45,5.72,-0.74,-0.75,-0.75
36.33,-4.65,-3.90,-4.64,-3.89,3.89,4.39,5.61,-0.75,-0.75,-0.74
36.70,-4.60,-3.84,-4.59,-3.85,3.85,4.34,5.50,-0.75,-0.75,-0.75
37.06,-4.55,-3.80,-4.55,-3.80,3.80,4.28,5.40,-0.74,-0.75,-0.74
37.43,-4.51,-3.76,-4.51,-3.76,3.76,4.23,5.29,-0.75,-0.75,-0.74
37.81,-4.47,-3.72,-4.47,-3.72,3.72,4.18,5.18,-0.75,-0.75,-0.74
38.19,-4.43,-3.68,-4.43,-3.68,3.67,4.12,5.07,-0.75,-0.75,-0.74
38.57,-4.39,-3.63,-4.39,-3.63,3.64,4.07,4.96,-0.75,-0.75,-0.75
38.95,-4.35,-3.59,-4.35,-3.59,3.60,4.02,4.85,-0.75,-0.75,-0.75
39.34,-4.32,-3.55,-4.32,-3.55,3.56,3.96,4.74,-0.76,-0.76,-0.76
39.74,-4.29,-3.52,-4.29,-3.52,3.52,3.91,4.64,-0.76,-0.76,-0.76
40.14,-4.26,-3.49,-4.26,-3.49,3.49,3.86,4.54,-0.77,-0.77,-0.76
40.54,-4.23,-3.46,-4.22,-3.46,3.45,3.81,4.43,-0.78,-0.77,-0.76
40.94,-4.19,-3.41,-4.19,-3.42,3.42,3.76,4.33,-0.77,-0.77,-0.77
41.35,-4.16,-3.38,-4.16,-3.38,3.39,3.71,4.24,-0.77,-0.77,-0.77
41.76,-4.13,-3.35,-4.12,-3.35,3.35,3.66,4.14,-0.77,-0.77,-0.77
42.18,-4.10,-3.32,-4.10,-3.32,3.32,3.61,4.05,-0.77,-0.77,-0.77
42.60,-4.07,-3.29,-4.07,-3.29,3.29,3.56,3.96,-0.78,-0.78,-0.77
43.03,-4.04,-3.26,-4.04,-3.26,3.26,3.51,3.87,-0.78,-0.78,-0.77
43.46,-4.01,-3.23,-4.01,-3.23,3.22,3.46,3.78,-0.78,-0.79,-0.77
43.90,-3.99,-3.19,-3.98,-3.19,3.19,3.41,3.70,-0.79,-0.79,-0.79
44.33,-3.96,-3.16,-3.96,-3.16,3.16,3.36,3.62,-0.80,-0.80,-0.79
44.78,-3.93,-3.12,-3.93,-3.13,3.13,3.32,3.54,-0.80,-0.80,-0.80
45.23,-3.91,-3.10,-3.90,-3.10,3.10,3.27,3.47,-0.81,-0.80,-0.80
45.68,-3.88,-3.07,-3.88,-3.07,3.07,3.22,3.40,-0.80,-0.80,-0.80
46.13,-3.85,-3.03,-3.85,-3.05,3.05,3.18,3.33,-0.80,-0.81,-0.81
46.60,-3.84,-3.03,-3.83,-3.02,3.02,3.13,3.26,-0.81,-0.81,-0.80
47.06,-3.82,-3.00,-3.82,-3.00,3.00,3.09,3.20,-0.82,-0.82,-0.81
47.53,-3.80,-2.97,-3.80,-2.98,2.97,3.04,3.14,-0.82,-0.83,-0.82
48.01,-3.79,-2.97,-3.78,-2.96,2.95,3.00,3.08,-0.84,-0.83,-0.81
48.49,-3.77,-2.93,-3.77,-2.93,2.93,2.95,3.02,-0.84,-0.84,-0.83
48.97,-3.75,-2.89,-3.75,-2.90,2.90,2.91,2.97,-0.84,-0.85,-0.85
49.46,-3.74,-2.87,-3.74,-2.87,2.88,2.86,2.91,-0.86,-0.86,-0.86
49.96,-3.73,-2.84,-3.73,-2.85,2.85,2.82,2.86,-0.87,-0.87,-0.88
50.46,-3.73,-2.84,-3.72,-2.83,2.83,2.78,2.82,-0.90,-0.89,-0.88
50.96,-3.72,-2.81,-3.72,-2.81,2.81,2.74,2.77,-0.91,-0.91,-0.90
51.47,-3.72,-2.78,-3.71,-2.79,2.78,2.69,2.73,-0.93,-0.93,-0.93
51.99,-3.71,-2.76,-3.71,-2.76,2.76,2.65,2.68,-0.94,-0.94,-0.94
52.51,-3.70,-2.74,-3.70,-2.74,2.74,2.61,2.64,-0.96,-0.96,-0.95
53.03,-3.70,-2.72,-3.69,-2.72,2.72,2.57,2.60,-0.98,-0.97,-0.97
53.56,-3.69,-2.70,-3.69,-2.70,2.70,2.53,2.57,-0.99,-0.99,-0.98
54.10,-3.69,-2.67,-3.69,-2.68,2.68,2.49,2.53,-1.01,-1.01,-1.01
54.64,-3.69,-2.66,-3.68,-2.65,2.66,2.45,2.49,-1.03,-1.02,-1.02
55.18,-3.69,-2.63,-3.69,-2.63,2.64,2.41,2.46,-1.04,-1.05,-1.05
55.74,-3.70,-2.61,-3.70,-2.62,2.62,2.38,2.43,-1.07,-1.07,-1.08
56.29,-3.71,-2.62,-3.71,-2.61,2.61,2.34,2.40,-1.10,-1.10,-1.08
56.86,-3.72,-2.60,-3.71,-2.60,2.59,2.30,2.36,-1.12,-1.12,-1.11
57.42,-3.72,-2.57,-3.72,-2.58,2.57,2.26,2.33,-1.14,-1.14,-1.14
58.00,-3.72,-2.55,-3.72,-2.55,2.56,2.23,2.30,-1.16,-1.16,-1.16
58.58,-3.72,-2.53,-3.72,-2.53,2.54,2.19,2.27,-1.18,-1.18,-1.18
59.16,-3.72,-2.51,-3.72,-2.51,2.51,2.15,2.24,-1.20,-1.20,-1.20
59.76,-3.72,-2.49,-3.72,-2.49,2.48,2.12,2.21,-1.23,-1.23,-1.22
60.35,-3.72,-2.46,-3.72,-2.46,2.45,2.08,2.18,-1.26,-1.26,-1.25
60.96,-3.72,-2.43,-3.72,-2.42,2.42,2.05,2.15,-1.29,-1.29,-1.28
61.57,-3.72,-2.38,-3.72,-2.39,2.39,2.01,2.12,-1.33,-1.33,-1.33
62.18,-3.72,-2.34,-3.72,-2.35,2.35,1.98,2.09,-1.36,-1.36,-1.37
62.80,-3.72,-2.32,-3.72,-2.31,2.31,1.94,2.06,-1.40,-1.40,-1.40
63.43,-3.72,-2.27,-3.72,-2.27,2.28,1.91,2.03,-1.44,-1.44,-1.44
64.07,-3.72,-2.23,-3.72,-2.24,2.24,1.88,2.00,-1.48,-1.48,-1.48
64.71,-3.72,-2.20,-3.72,-2.20,2.20,1.84,1.97,-1.52,-1.52,-1.51
65.35,-3.72,-2.16,-3.72,-2.16,2.16,1.81,1.94,-1.55,-1.55,-1.55
66.01,-3.72,-2.12,-3.72,-2.13,2.12,1.78,1.91,-1.59,-1.59,-1.59
66.67,-3.72,-2.09,-3.72,-2.09,2.09,1.75,1.88,-1.63,-1.63,-1.62
67.33,-3.72,-2.05,-3.72,-2.05,2.05,1.72,1.85,-1.67,-1.67,-1.66
68.01,-3.72,-2.01,-3.72,-2.01,2.01,1.68,1.82,-1.71,-1.71,-1.70
68.69,-3.72,-1.97,-3.72,-1.97,1.97,1.65,1.79,-1.74,-1.74,-1.74
69.37,-3.72,-1.93,-3.72,-1.93,1.93,1.62,1.75,-1.78,-1.78,-1.78
70.07,-3.72,-1.89,-3.72,-1.89,1.89,1.59,1.72,-1.82,-1.82,-1.82
70.77,-3.72,-1.85,-3.72,-1.85,1.85,1.56,1.69,-1.86,-1.86,-1.86
71.48,-3.72,-1.82,-3.72,-1.82,1.81,1.53,1.66,-1.90,-1.90,-1.89
72.19,-3.72,-1.77,-3.72,-1.78,1.77,1.51,1.63,-1.94,-1.94,-1.94
72.91,-3.72,-1.74,-3.71,-1.74,1.73,1.48,1.60,-1.98,-1.98,-1.97
73.64,-3.71,-1.69,-3.71,-1.70,1.69,1.45,1.57,-2.01,-2.02,-2.01
74.38,-3.71,-1.66,-3.70,-1.65,1.65,1.42,1.54,-2.05,-2.05,-2.04
75.12,-3.70,-1.61,-3.70,-1.61,1.61,1.39,1.51,-2.08,-2.08,-2.08
75.87,-3.69,-1.57,-3.69,-1.58,1.58,1.36,1.49,-2.11,-2.11,-2.11
76.63,-3.70,-1.55,-3.69,-1.55,1.55,1.34,1.46,-2.15,-2.14,-2.14
77.40,-3.70,-1.52,-3.70,-1.52,1.53,1.31,1.43,-2.17,-2.17,-2.17
78.17,-3.71,-1.50,-3.71,-1.50,1.51,1.28,1.41,-2.20,-2.20,-2.20
78.95,-3.72,-1.48,-3.72,-1.49,1.49,1.26,1.38,-2.22,-2.23,-2.23
79.74,-3.74,-1.48,-3.74,-1.48,1.48,1.23,1.36,-2.25,-2.26,-2.25
80.54,-3.77,-1.49,-3.76,-1.48,1.48,1.21,1.33,-2.29,-2.28,-2.27
81.35,-3.79,-1.48,-3.79,-1.48,1.48,1.18,1.31,-2.31,-2.31,-2.30
82.16,-3.81,-1.47,-3.81,-1.48,1.48,1.15,1.29,-2.33,-2.33,-2.33
82.98,-3.84,-1.49,-3.83,-1.48,1.48,1.13,1.27,-2.35,-2.35,-2.34
83.81,-3.86,-1.48,-3.86,-1.49,1.49,1.10,1.25,-2.37,-2.37,-2.37
84.65,-3.90,-1.49,-3.89,-1.49,1.50,1.08,1.23,-2.40,-2.39,-2.40
85.50,-3.92,-1.50,-3.92,-1.50,1.50,1.06,1.21,-2.41,-2.41,-2.41
86.35,-3.95,-1.51,-3.95,-1.51,1.51,1.03,1.19,-2.43,-2.43,-2.43
87.22,-3.98,-1.52,-3.97,-1.52,1.52,1.01,1.18,-2.46,-2.45,-2.45
88.09,-4.00,-1.52,-4.00,-1.53,1.52,0.98,1.16,-2.47,-2.48,-2.47
88.97,-4.03,-1.53,-4.03,-1.53,1.53,0.96,1.15,-2.50,-2.50,-2.49
89.86,-4.05,-1.54,-4.04,-1.53,1.52,0.94,1.13,-2.52,-2.52,-2.50
90.76,-4.06,-1.52,-4.06,-1.52,1.52,0.91,1.12,-2.54,-2.54,-2.53
91.66,-4.06,-1.50,-4.06,-1.50,1.50,0.89,1.11,-2.55,-2.55,-2.55
92.58,-4.06,-1.48,-4.05,-1.48,1.49,0.87,1.10,-2.57,-2.57,-2.57
93.51,-4.05,-1.46,-4.05,-1.46,1.46,0.85,1.08,-2.58,-2.59,-2.58
94.44,-4.05,-1.44,-4.04,-1.44,1.44,0.82,1.07,-2.61,-2.60,-2.60
95.39,-4.04,-1.41,-4.04,-1.41,1.41,0.80,1.06,-2.62,-2.63,-2.62
96.34,-4.04,-1.38,-4.04,-1.38,1.38,0.78,1.06,-2.65,-2.65,-2.65
97.30,-4.04,-1.35,-4.04,-1.35,1.36,0.76,1.05,-2.68,-2.68,-2.68
98.28,-4.04,-1.32,-4.04,-1.32,1.33,0.74,1.04,-2.71,-2.71,-2.71
99.26,-4.04,-1.30,-4.04,-1.30,1.30,0.72,1.03,-2.74,-2.74,-2.73
100.25,-4.04,-1.27,-4.04,-1.27,1.27,0.69,1.03,-2.77,-2.77,-2.76
101.25,-4.04,-1.24,-4.04,-1.24,1.24,0.67,1.02,-2.80,-2.80,-2.79
102.27,-4.04,-1.20,-4.04,-1.21,1.21,0.65,1.01,-2.83,-2.83,-2.83
103.29,-4.04,-1.17,-4.04,-1.17,1.17,0.63,1.01,-2.87,-2.87,-2.86
104.32,-4.04,-1.14,-4.04,-1.14,1.13,0.61,1.00,-2.91,-2.91,-2.89
105.37,-4.04,-1.10,-4.03,-1.10,1.09,0.59,0.99,-2.95,-2.95,-2.93
106.42,-4.03,-1.04,-4.03,-1.05,1.04,0.57,0.99,-2.98,-2.98,-2.98
107.48,-4.02,-1.00,-4.02,-1.00,1.00,0.55,0.98,-3.02,-3.02,-3.01
108.56,-4.02,-0.94,-4.02,-0.94,0.96,0.53,0.98,-3.06,-3.06,-3.07
109.64,-4.03,-0.90,-4.02,-0.90,0.91,0.51,0.97,-3.11,-3.11,-3.12
110.74,-4.04,-0.86,-4.04,-0.86,0.87,0.49,0.96,-3.16,-3.17,-3.17
111.85,-4.07,-0.84,-4.07,-0.83,0.84,0.47,0.95,-3.23,-3.23,-3.22
112.97,-4.10,-0.80,-4.09,-0.81,0.80,0.45,0.94,-3.29,-3.29,-3.29
114.10,-4.13,-0.78,-4.13,-0.78,0.77,0.43,0.93,-3.35,-3.35,-3.34
115.24,-4.16,-0.75,-4.16,-0.75,0.74,0.40,0.92,-3.41,-3.41,-3.40
116.39,-4.19,-0.71,-4.18,-0.71,0.72,0.38,0.91,-3.47,-3.47,-3.47
117.55,-4.22,-0.68,-4.22,-0.68,0.69,0.36,0.89,-3.52,-3.53,-3.53
118.73,-4.25,-0.65,-4.25,-0.66,0.67,0.34,0.88,-3.58,-3.59,-3.59
119.92,-4.30,-0.65,-4.29,-0.64,0.64,0.32,0.86,-3.66,-3.65,-3.64
121.12,-4.32,-0.61,-4.32,-0.61,0.61,0.30,0.84,-3.70,-3.70,-3.70
122.33,-4.34,-0.58,-4.34,-0.59,0.58,0.28,0.82,-3.75,-3.76,-3.75
123.55,-4.36,-0.55,-4.36,-0.55,0.55,0.26,0.80,-3.81,-3.81,-3.80
124.79,-4.38,-0.52,-4.37,-0.52,0.51,0.24,0.78,-3.87,-3.86,-3.85
126.03,-4.39,-0.48,-4.38,-0.48,0.47,0.22,0.75,-3.92,-3.92,-3.90
127.29,-4.39,-0.43,-4.38,-0.43,0.42,0.20,0.73,-3.97,-3.97,-3.95
128.57,-4.38,-0.36,-4.38,-0.37,0.37,0.18,0.70,-4.01,-4.01,-4.01
129.85,-4.37,-0.31,-4.37,-0.31,0.32,0.16,0.67,-4.05,-4.05,-4.05
131.15,-4.36,-0.25,-4.36,-0.26,0.26,0.13,0.63,-4.09,-4.10,-4.10
132.46,-4.36,-0.21,-4.35,-0.21,0.21,0.11,0.60,-4.15,-4.14,-4.14
133.79,-4.35,-0.16,-4.34,-0.16,0.16,0.09,0.56,-4.19,-4.19,-4.18
135.12,-4.34,-0.11,-4.34,-0.12,0.11,0.07,0.53,-4.22,-4.23,-4.22
136.48,-4.34,-0.07,-4.34,-0.07,0.08,0.05,0.49,-4.26,-4.26,-4.26
137.84,-4.35,-0.04,-4.34,-0.03,0.04,0.02,0.45,-4.30,-4.30,-4.30
139.22,-4.36,-0.00,-4.36,-0.01,0.02,0.00,0.40,-4.34,-4.34,-4.35
140.61,-4.38,0.02,-4.38,0.01,0.00,-0.02,0.36,-4.38,-4.38,-4.39
142.02,-4.42,-0.00,-4.41,0.01,-0.01,-0.05,0.32,-4.43,-4.42,-4.41
143.44,-4.44,0.02,-4.44,0.02,-0.02,-0.07,0.27,-4.46,-4.46,-4.45
144.87,-4.48,0.02,-4.47,0.02,-0.03,-0.09,0.22,-4.50,-4.50,-4.49
146.32,-4.50,0.04,-4.50,0.03,-0.03,-0.12,0.17,-4.53,-4.53,-4.53
147.78,-4.54,0.03,-4.53,0.03,-0.03,-0.14,0.12,-4.57,-4.57,-4.56
149.26,-4.57,0.03,-4.56,0.04,-0.04,-0.17,0.07,-4.61,-4.60,-4.59
150.75,-4.60,0.06,-4.60,0.05,-0.05,-0.19,0.02,-4.64,-4.65,-4.65
152.26,-4.63,0.07,-4.63,0.06,-0.06,-0.22,-0.03,-4.69,-4.69,-4.69
153.78,-4.66,0.07,-4.65,0.08,-0.08,-0.25,-0.08,-4.74,-4.73,-4.72
155.32,-4.68,0.11,-4.68,0.10,-0.11,-0.27,-0.14,-4.78,-4.78,-4.78
156.88,-4.70,0.12,-4.70,0.12,-0.14,-0.30,-0.19,-4.83,-4.83,-4.81
158.44,-4.71,0.16,-4.70,0.16,-0.17,-0.33,-0.25,-4.88,-4.88,-4.86
160.03,-4.71,0.21,-4.70,0.21,-0.21,-0.36,-0.31,-4.92,-4.92,-4.91
161.63,-4.70,0.27,-4.70,0.26,-0.26,-0.39,-0.36,-4.95,-4.96,-4.96
163.24,-4.69,0.32,-4.69,0.31,-0.31,-0.42,-0.42,-4.99,-5.00,-5.00
164.88,-4.69,0.36,-4.69,0.36,-0.35,-0.45,-0.48,-5.04,-5.04,-5.04
166.53,-4.69,0.41,-4.69,0.41,-0.41,-0.48,-0.54,-5.09,-5.09,-5.09
168.19,-4.69,0.46,-4.69,0.46,-0.46,-0.52,-0.60,-5.14,-5.14,-5.14
169.87,-4.69,0.51,-4.69,0.51,-0.51,-0.55,-0.66,-5.19,-5.19,-5.19
171.57,-4.69,0.55,-4.69,0.55,-0.56,-0.58,-0.72,-5.24,-5.24,-5.23
173.29,-4.69,0.61,-4.69,0.61,-0.61,-0.62,-0.78,-5.29,-5.29,-5.29
175.02,-4.69,0.66,-4.69,0.66,-0.66,-0.66,-0.85,-5.35,-5.35,-5.34
176.77,-4.69,0.72,-4.69,0.72,-0.71,-0.69,-0.91,-5.40,-5.40,-5.40
178.54,-4.69,0.77,-4.69,0.77,-0.77,-0.73,-0.98,-5.46,-5.46,-5.45
180.32,-4.69,0.83,-4.69,0.83,-0.83,-0.77,-1.04,-5.51,-5.51,-5.51
182.13,-4.69,0.88,-4.69,0.88,-0.88,-0.81,-1.11,-5.57,-5.57,-5.56
183.95,-4.69,0.94,-4.69,0.94,-0.94,-0.86,-1.17,-5.63,-5.63,-5.62
185.79,-4.69,0.99,-4.69,0.99,-0.99,-0.90,-1.24,-5.68,-5.68,-5.67
187.65,-4.69,1.06,-4.69,1.05,-1.05,-0.94,-1.31,-5.73,-5.73,-5.74
189.52,-4.69,1.11,-4.69,1.11,-1.10,-0.99,-1.38,-5.79,-5.78,-5.79
191.42,-4.69,1.16,-4.69,1.16,-1.15,-1.04,-1.45,-5.84,-5.84,-5.84
193.33,-4.70,1.20,-4.70,1.20,-1.20,-1.08,-1.52,-5.90,-5.90,-5.89
195.27,-4.71,1.24,-4.70,1.24,-1.25,-1.13,-1.58,-5.95,-5.95,-5.94
197.22,-4.71,1.30,-4.71,1.30,-1.30,-1.18,-1.66,-6.00,-6.00,-6.00
199.19,-4.71,1.35,-4.70,1.35,-1.35,-1.24,-1.73,-6.05,-6.05,-6.05
201.18,-4.70,1.41,-4.70,1.40,-1.40,-1.29,-1.80,-6.09,-6.10,-6.10
203.19,-4.69,1.45,-4.69,1.45,-1.46,-1.34,-1.87,-6.14,-6.15,-6.13
205.23,-4.68,1.52,-4.67,1.51,-1.52,-1.40,-1.94,-6.19,-6.19,-6.19
207.28,-4.66,1.56,-4.65,1.58,-1.59,-1.46,-2.00,-6.24,-6.24,-6.21
209.35,-4.62,1.66,-4.62,1.66,-1.66,-1.52,-2.07,-6.27,-6.28,-6.27
211.44,-4.58,1.75,-4.58,1.74,-1.74,-1.58,-2.14,-6.31,-6.32,-6.32
213.56,-4.54,1.83,-4.53,1.83,-1.82,-1.64,-2.21,-6.36,-6.35,-6.36
215.69,-4.49,1.90,-4.48,1.91,-1.91,-1.70,-2.27,-6.40,-6.39,-6.38
217.85,-4.42,2.01,-4.43,2.00,-2.01,-1.76,-2.34,-6.42,-6.43,-6.42
220.03,-4.37,2.10,-4.36,2.10,-2.11,-1.83,-2.40,-6.47,-6.47,-6.46
222.23,-4.30,2.20,-4.29,2.20,-2.20,-1.89,-2.46,-6.50,-6.50,-6.49
224.45,-4.22,2.30,-4.22,2.31,-2.30,-1.96,-2.51,-6.52,-6.52,-6.51
226.70,-4.14,2.41,-4.14,2.41,-2.40,-2.02,-2.57,-6.54,-6.54,-6.54
228.96,-4.05,2.53,-4.06,2.51,-2.50,-2.09,-2.62,-6.55,-6.56,-6.57
231.25,-4.00,2.59,-3.98,2.61,-2.60,-2.15,-2.66,-6.60,-6.58,-6.58
233.57,-3.92,2.69,-3.91,2.69,-2.69,-2.22,-2.71,-6.61,-6.60,-6.60
235.90,-3.83,2.79,-3.84,2.77,-2.78,-2.28,-2.75,-6.60,-6.62,-6.61
238.26,-3.78,2.85,-3.77,2.86,-2.86,-2.35,-2.78,-6.64,-6.63,-6.62
240.64,-3.70,2.94,-3.70,2.93,-2.94,-2.41,-2.81,-6.63,-6.63,-6.63
243.05,-3.64,3.00,-3.64,3.00,-3.00,-2.47,-2.84,-6.64,-6.64,-6.63
245.48,-3.58,3.07,-3.58,3.07,-3.07,-2.52,-2.86,-6.64,-6.64,-6.64
247.93,-3.52,3.13,-3.52,3.12,-3.12,-2.57,-2.87,-6.64,-6.64,-6.64
250.41,-3.49,3.16,-3.47,3.17,-3.17,-2.63,-2.89,-6.65,-6.64,-6.64
252.92,-3.43,3.21,-3.43,3.20,-3.20,-2.67,-2.89,-6.63,-6.64,-6.63
255.45,-3.40,3.23,-3.40,3.23,-3.23,-2.71,-2.89,-6.63,-6.63,-6.62
258.00,-3.38,3.24,-3.37,3.25,-3.25,-2.75,-2.89,-6.62,-6.62,-6.61
260.58,-3.36,3.26,-3.36,3.25,-3.25,-2.78,-2.88,-6.61,-6.61,-6.61
263.19,-3.36,3.25,-3.35,3.25,-3.24,-2.81,-2.87,-6.60,-6.59,-6.60
265.82,-3.36,3.24,-3.36,3.23,-3.22,-2.83,-2.85,-6.58,-6.58,-6.59
268.48,-3.38,3.20,-3.38,3.20,-3.19,-2.85,-2.83,-6.57,-6.57,-6.57
271.16,-3.42,3.14,-3.42,3.14,-3.15,-2.86,-2.80,-6.56,-6.56,-6.55
273.87,-3.47,3.09,-3.46,3.08,-3.09,-2.87,-2.77,-6.56,-6.56,-6.55
276.61,-3.52,3.01,-3.52,3.02,-3.03,-2.87,-2.74,-6.54,-6.54,-6.52
279.38,-3.58,2.95,-3.57,2.95,-2.95,-2.86,-2.70,-6.53,-6.52,-6.52
282.17,-3.63,2.88,-3.63,2.87,-2.86,-2.85,-2.67,-6.49,-6.50,-6.50
284.99,-3.71,2.79,-3.71,2.78,-2.77,-2.83,-2.63,-6.48,-6.48,-6.49
287.84,-3.82,2.67,-3.81,2.68,-2.67,-2.81,-2.58,-6.49,-6.48,-6.48
290.72,-3.91,2.57,-3.91,2.56,-2.56,-2.78,-2.54,-6.47,-6.47,-6.47
293.63,-4.01,2.45,-4.01,2.45,-2.45,-2.75,-2.49,-6.46,-6.46,-6.45
296.57,-4.11,2.33,-4.10,2.34,-2.34,-2.71,-2.45,-6.44,-6.44,-6.43
299.53,-4.21,2.23,-4.21,2.22,-2.22,-2.67,-2.40,-6.43,-6.43,-6.43
302.53,-4.32,2.11,-4.32,2.10,-2.10,-2.63,-2.35,-6.42,-6.42,-6.42
305.55,-4.43,1.98,-4.42,1.99,-1.99,-2.58,-2.30,-6.42,-6.41,-6.40
308.61,-4.51,1.89,-4.51,1.88,-1.88,-2.53,-2.26,-6.39,-6.40,-6.39
311.69,-4.61,1.78,-4.60,1.78,-1.78,-2.48,-2.21,-6.39,-6.38,-6.38
314.81,-4.68,1.68,-4.68,1.69,-1.68,-2.43,-2.16,-6.36,-6.36,-6.35
317.96,-4.76,1.61,-4.76,1.60,-1.59,-2.38,-2.11,-6.35,-6.35,-6.36
321.14,-4.84,1.52,-4.84,1.52,-1.52,-2.33,-2.06,-6.35,-6.36,-6.35
324.35,-4.91,1.45,-4.91,1.45,-1.45,-2.28,-2.02,-6.36,-6.36,-6.35
327.59,-4.97,1.38,-4.96,1.39,-1.40,-2.23,-1.97,-6.37,-6.36,-6.34
330.87,-4.99,1.36,-4.99,1.35,-1.36,-2.18,-1.93,-6.35,-6.35,-6.34
334.18,-5.01,1.34,-5.00,1.34,-1.34,-2.13,-1.88,-6.34,-6.34,-6.34
337.52,-5.01,1.33,-5.00,1.33,-1.33,-2.08,-1.84,-6.33,-6.33,-6.33
340.90,-5.00,1.34,-5.00,1.33,-1.33,-2.03,-1.80,-6.32,-6.33,-6.33
344.30,-4.99,1.35,-4.99,1.34,-1.35,-1.99,-1.76,-6.33,-6.34,-6.33
347.75,-4.98,1.36,-4.97,1.36,-1.37,-1.95,-1.72,-6.35,-6.34,-6.33
351.23,-4.94,1.40,-4.93,1.40,-1.41,-1.91,-1.68,-6.35,-6.35,-6.33
354.74,-4.89,1.45,-4.89,1.45,-1.46,-1.88,-1.64,-6.34,-6.34,-6.33
358.28,-4.83,1.53,-4.83,1.52,-1.51,-1.85,-1.61,-6.34,-6.34,-6.35
361.87,-4.78,1.58,-4.77,1.58,-1.57,-1.82,-1.57,-6.35,-6.35,-6.35
365.49,-4.72,1.64,-4.72,1.64,-1.64,-1.80,-1.54,-6.36,-6.36,-6.35
369.14,-4.66,1.71,-4.66,1.70,-1.71,-1.78,-1.51,-6.37,-6.37,-6.36
372.83,-4.60,1.77,-4.59,1.78,-1.78,-1.77,-1.48,-6.38,-6.37,-6.36
376.56,-4.52,1.86,-4.52,1.85,-1.85,-1.77,-1.45,-6.37,-6.37,-6.37
380.33,-4.46,1.93,-4.46,1.93,-1.92,-1.77,-1.42,-6.37,-6.38,-6.38
384.13,-4.40,2.00,-4.40,2.00,-1.99,-1.78,-1.39,-6.38,-6.39,-6.39
387.97,-4.35,2.06,-4.34,2.06,-2.06,-1.80,-1.37,-6.40,-6.40,-6.40
391.85,-4.29,2.13,-4.29,2.12,-2.13,-1.83,-1.34,-6.42,-6.42,-6.41
395.77,-4.23,2.18,-4.22,2.19,-2.20,-1.87,-1.32,-6.43,-6.42,-6.40
399.73,-4.16,2.26,-4.16,2.26,-2.27,-1.92,-1.30,-6.43,-6.42,-6.41
403.72,-4.09,2.34,-4.09,2.34,-2.34,-1.98,-1.28,-6.42,-6.42,-6.42
407.76,-4.02,2.42,-4.02,2.41,-2.40,-2.05,-1.26,-6.42,-6.42,-6.43
411.84,-3.96,2.47,-3.96,2.48,-2.47,-2.14,-1.24,-6.43,-6.43,-6.42
415.96,-3.91,2.54,-3.91,2.53,-2.53,-2.23,-1.22,-6.44,-6.44,-6.44
420.12,-3.87,2.58,-3.86,2.58,-2.59,-2.34,-1.21,-6.45,-6.45,-6.44
424.32,-3.82,2.63,-3.81,2.64,-2.64,-2.46,-1.20,-6.45,-6.45,-6.44
428.56,-3.77,2.69,-3.77,2.68,-2.68,-2.58,-1.19,-6.44,-6.45,-6.45
432.85,-3.74,2.72,-3.74,2.72,-2.71,-2.71,-1.18,-6.45,-6.45,-6.45
437.18,-3.72,2.74,-3.72,2.73,-2.73,-2.82,-1.17,-6.45,-6.45,-6.45
