frequency,raw,error,smoothed,error_smoothed,equalization,parametric_eq,fixed_band_eq,equalized_raw,equalized_smoothed,target
20.00,-47.08,-44.11,-47.08,-44.11,44.12,-55.67,19.81,-2.96,-2.97,-2.97
20.20,-46.85,-43.97,-46.85,-43.97,43.97,-55.46,20.06,-2.88,-2.88,-2.88
20.40,-46.62,-43.82,-46.62,-43.82,43.82,-55.37,20.32,-2.80,-2.80,-2.80
20.61,-46.38,-43.65,-46.38,-43.66,43.66,-55.38,20.58,-2.72,-2.72,-2.73
20.81,-46.15,-43.51,-46.15,-43.51,43.51,-55.48,20.85,-2.64,-2.64,-2.64
21.02,-45.92,-43.36,-45.92,-43.35,43.34,102.31,21.13,-2.58,-2.57,-2.56
21.23,-45.69,-43.19,-45.69,-43.19,43.18,68.25,21.41,-2.51,-2.51,-2.50
21.44,-45.46,-43.02,-45.46,-43.02,43.01,64.58,21.69,-2.45,-2.45,-2.44
21.66,-45.22,-42.83,-45.22,-42.83,42.84,62.15,21.99,-2.39,-2.38,-2.39
21.87,-44.99,-42.65,-44.99,-42.65,42.66,60.26,22.29,-2.33,-2.33,-2.34
22.09,-44.76,-42.47,-44.76,-42.47,42.48,58.65,22.60,-2.28,-2.28,-2.29
22.31,-44.54,-42.30,-44.53,-42.29,42.29,57.25,22.91,-2.24,-2.24,-2.24
22.54,-44.31,-42.11,-44.31,-42.11,42.11,55.99,23.24,-2.21,-2.20,-2.20
22.76,-44.09,-41.93,-44.09,-41.93,41.92,54.85,23.57,-2.17,-2.16,-2.16
22.99,-43.86,-41.73,-43.86,-41.74,41.74,53.81,23.91,-2.12,-2.12,-2.13
23.22,-43.64,-41.55,-43.64,-41.55,41.56,52.84,24.26,-2.09,-2.08,-2.09
23.45,-43.42,-41.37,-43.42,-41.37,41.37,51.94,24.63,-2.05,-2.04,-2.05
23.69,-43.19,-41.18,-43.19,-41.18,41.19,51.10,25.00,-2.01,-2.01,-2.01
23.92,-42.97,-41.00,-42.97,-41.00,41.00,50.32,25.38,-1.96,-1.97,-1.97
24.16,-42.75,-40.83,-42.75,-40.83,40.82,49.58,25.78,-1.93,-1.93,-1.92
24.40,-42.54,-40.65,-42.54,-40.64,40.64,48.88,26.19,-1.90,-1.90,-1.89
24.65,-42.33,-40.46,-42.32,-40.46,40.46,48.22,26.62,-1.87,-1.87,-1.87
24.89,-42.11,-40.27,-42.11,-40.27,40.28,47.60,27.06,-1.83,-1.83,-1.84
25.14,-41.90,-40.10,-41.90,-40.10,40.10,47.00,27.52,-1.80,-1.80,-1.80
25.39,-41.69,-39.92,-41.69,-39.92,39.92,46.43,27.99,-1.76,-1.77,-1.77
25.65,-41.48,-39.75,-41.48,-39.75,39.75,45.89,28.49,-1.73,-1.73,-1.73
25.91,-41.28,-39.57,-41.28,-39.57,39.57,45.37,29.00,-1.71,-1.70,-1.71
26.16,-41.07,-39.39,-41.08,-39.40,39.40,44.87,29.54,-1.66,-1.67,-1.68
26.43,-40.88,-39.24,-40.88,-39.23,39.23,44.39,30.11,-1.65,-1.64,-1.64
26.69,-40.68,-39.07,-40.68,-39.07,39.07,43.93,30.70,-1.61,-1.61,-1.61
26.96,-40.48,-38.90,-40.49,-38.91,38.90,43.47,31.32,-1.58,-1.58,-1.58
27.23,-40.29,-38.74,-40.29,-38.74,38.74,43.03,31.98,-1.55,-1.55,-1.55
27.50,-40.10,-38.58,-40.10,-38.58,38.58,42.60,32.68,-1.52,-1.52,-1.52
27.77,-39.91,-38.41,-39.91,-38.42,38.42,42.18,33.42,-1.49,-1.49,-1.50
28.05,-39.73,-38.27,-39.73,-38.26,38.27,41.76,34.21,-1.46,-1.46,-1.46
28.33,-39.55,-38.11,-39.55,-38.12,38.12,41.35,35.06,-1.43,-1.43,-1.44
28.62,-39.38,-37.97,-39.38,-37.97,37.97,40.94,35.96,-1.41,-1.41,-1.41
28.90,-39.20,-37.83,-39.20,-37.83,37.82,40.53,36.93,-1.37,-1.38,-1.37
29.19,-39.03,-37.68,-39.03,-37.69,37.69,40.11,37.98,-1.34,-1.34,-1.35
29.48,-38.87,-37.57,-38.86,-37.55,37.55,39.70,39.10,-1.31,-1.31,-1.30
29.78,-38.70,-37.41,-38.71,-37.42,37.42,39.28,40.29,-1.28,-1.28,-1.29
30.08,-38.55,-37.29,-38.55,-37.30,37.30,38.85,41.53,-1.25,-1.25,-1.26
30.38,-38.41,-37.18,-38.41,-37.18,37.18,38.42,42.74,-1.23,-1.23,-1.23
30.68,-38.27,-37.07,-38.27,-37.07,37.07,37.97,43.81,-1.20,-1.21,-1.20
30.99,-38.14,-36.96,-38.14,-36.96,36.96,37.52,44.53,-1.18,-1.18,-1.18
31.30,-38.01,-36.85,-38.01,-36.86,36.85,37.06,44.71,-1.16,-1.16,-1.16
31.61,-37.89,-36.76,-37.89,-36.76,36.76,36.59,44.32,-1.13,-1.13,-1.13
31.93,-37.77,-36.66,-37.77,-36.66,36.67,36.14,43.53,-1.11,-1.11,-1.11
32.24,-37.66,-36.57,-37.66,-36.58,36.58,35.69,42.55,-1.08,-1.08,-1.09
32.57,-37.56,-36.50,-37.56,-36.49,36.50,35.29,41.52,-1.06,-1.06,-1.06
32.89,-37.46,-36.42,-37.46,-36.42,36.42,34.94,40.53,-1.04,-1.04,-1.04
33.22,-37.37,-36.35,-37.37,-36.35,36.35,34.70,39.61,-1.02,-1.02,-1.02
33.55,-37.29,-36.29,-37.29,-36.29,36.28,34.59,38.76,-1.00,-1.00,-1.00
33.89,-37.21,-36.22,-37.21,-36.22,36.22,34.64,37.99,-0.99,-0.99,-0.99
34.23,-37.13,-36.16,-37.13,-36.16,36.16,34.86,37.29,-0.97,-0.97,-0.97
34.57,-37.06,-36.10,-37.06,-36.10,36.10,35.23,36.65,-0.96,-0.96,-0.96
34.92,-36.99,-36.04,-36.99,-36.04,36.04,35.70,36.07,-0.95,-0.95,-0.95
35.27,-36.92,-35.99,-36.92,-35.98,35.99,36.21,35.54,-0.93,-0.93,-0.93
35.62,-36.86,-35.92,-36.86,-35.93,35.93,36.72,35.05,-0.93,-0.93,-0.94
35.97,-36.80,-35.87,-36.80,-35.88,35.88,37.17,34.61,-0.92,-0.92,-0.93
36.33,-36.75,-35.84,-36.75,-35.83,35.83,37.54,34.20,-0.92,-0.92,-0.91
36.70,-36.69,-35.77,-36.69,-35.78,35.77,37.80,33.83,-0.92,-0.92,-0.92
37.06,-36.64,-35.72,-36.64,-35.72,35.72,37.97,33.48,-0.92,-0.92,-0.92
37.43,-36.58,-35.66,-36.58,-35.66,35.66,38.03,33.17,-0.92,-0.92,-0.92
37.81,-36.52,-35.60,-36.52,-35.60,35.60,38.01,32.88,-0.92,-0.92,-0.92
38.19,-36.46,-35.54,-36.46,-35.54,35.54,37.92,32.61,-0.92,-0.92,-0.92
38.57,-36.39,-35.47,-36.39,-35.47,35.47,37.77,32.37,-0.92,-0.92,-0.92
38.95,-36.33,-35.41,-36.32,-35.40,35.40,37.58,32.15,-0.93,-0.93,-0.92
39.34,-36.25,-35.31,-36.25,-35.32,35.32,37.35,31.94,-0.93,-0.93,-0.94
39.74,-36.18,-35.24,-36.18,-35.24,35.25,37.09,31.76,-0.93,-0.93,-0.94
40.14,-36.10,-35.15,-36.10,-35.16,35.16,36.81,31.59,-0.94,-0.94,-0.95
40.54,-36.03,-35.08,-36.03,-35.08,35.08,36.52,31.44,-0.95,-0.95,-0.95
40.94,-35.95,-34.99,-35.95,-34.99,34.99,36.21,31.31,-0.96,-0.96,-0.96
41.35,-35.86,-34.90,-35.86,-34.90,34.89,35.90,31.19,-0.97,-0.97,-0.96
41.76,-35.76,-34.79,-35.76,-34.79,34.79,35.58,31.09,-0.97,-0.97,-0.97
42.18,-35.66,-34.68,-35.66,-34.68,34.68,35.26,31.00,-0.98,-0.98,-0.98
42.60,-35.55,-34.56,-35.55,-34.56,34.56,34.94,30.92,-0.99,-0.99,-0.99
43.03,-35.43,-34.44,-35.43,-34.44,34.43,34.62,30.86,-1.00,-1.00,-0.99
43.46,-35.30,-34.30,-35.30,-34.30,34.29,34.30,30.81,-1.01,-1.01,-1.00
43.90,-35.16,-34.14,-35.16,-34.14,34.14,33.97,30.77,-1.02,-1.02,-1.02
44.33,-35.02,-33.98,-35.02,-33.98,33.99,33.65,30.75,-1.03,-1.03,-1.04
44.78,-34.87,-33.82,-34.87,-33.82,33.83,33.33,30.74,-1.04,-1.04,-1.05
45.23,-34.72,-33.66,-34.72,-33.66,33.66,33.02,30.74,-1.06,-1.06,-1.06
45.68,-34.56,-33.49,-34.56,-33.49,33.49,32.70,30.75,-1.07,-1.07,-1.07
46.13,-34.40,-33.32,-34.40,-33.32,33.31,32.39,30.78,-1.08,-1.08,-1.08
46.60,-34.22,-33.14,-34.22,-33.14,33.13,32.08,30.82,-1.09,-1.09,-1.08
47.06,-34.04,-32.95,-34.04,-32.95,32.95,31.77,30.87,-1.09,-1.09,-1.09
47.53,-33.85,-32.75,-33.85,-32.75,32.76,31.46,30.94,-1.09,-1.09,-1.10
48.01,-33.66,-32.56,-33.66,-32.56,32.56,31.16,31.02,-1.10,-1.10,-1.10
48.49,-33.47,-32.36,-33.47,-32.36,32.36,30.86,31.11,-1.11,-1.11,-1.11
48.97,-33.29,-32.17,-33.28,-32.16,32.16,30.56,31.21,-1.13,-1.12,-1.12
49.46,-33.09,-31.95,-33.09,-31.96,31.96,30.26,31.33,-1.13,-1.13,-1.14
49.96,-32.90,-31.75,-32.90,-31.76,31.76,29.97,31.46,-1.14,-1.14,-1.15
50.46,-32.70,-31.56,-32.70,-31.56,31.56,29.68,31.61,-1.14,-1.14,-1.14
50.96,-32.51,-31.37,-32.51,-31.36,31.36,29.39,31.77,-1.15,-1.15,-1.14
51.47,-32.31,-31.16,-32.31,-31.17,31.17,29.10,31.94,-1.14,-1.15,-1.15
51.99,-32.12,-30.97,-32.12,-30.97,30.97,28.82,32.13,-1.15,-1.15,-1.15
52.51,-31.92,-30.77,-31.92,-30.77,30.78,28.54,32.33,-1.15,-1.15,-1.15
53.03,-31.73,-30.58,-31.73,-30.58,30.58,28.26,32.54,-1.15,-1.15,-1.15
53.56,-31.54,-30.39,-31.54,-30.39,30.39,27.99,32.78,-1.15,-1.15,-1.15
54.10,-31.36,-30.20,-31.36,-30.20,30.20,27.72,33.02,-1.16,-1.16,-1.16
54.64,-31.18,-30.01,-31.18,-30.01,30.01,27.45,33.28,-1.17,-1.17,-1.17
55.18,-31.00,-29.82,-31.00,-29.82,29.82,27.18,33.55,-1.18,-1.18,-1.18
55.74,-30.83,-29.63,-30.83,-29.64,29.63,26.91,33.83,-1.20,-1.19,-1.20
56.29,-30.66,-29.46,-30.66,-29.45,29.45,26.65,34.11,-1.21,-1.21,-1.20
56.86,-30.48,-29.26,-30.48,-29.26,29.26,26.39,34.40,-1.22,-1.22,-1.22
57.42,-30.31,-29.07,-30.31,-29.07,29.08,26.13,34.70,-1.23,-1.23,-1.24
58.00,-30.14,-28.89,-30.14,-28.89,28.89,25.87,34.99,-1.25,-1.24,-1.25
58.58,-29.97,-28.70,-29.97,-28.71,28.71,25.62,35.26,-1.26,-1.26,-1.27
59.16,-29.81,-28.53,-29.81,-28.53,28.53,25.37,35.51,-1.28,-1.28,-1.28
59.76,-29.65,-28.35,-29.65,-28.35,28.34,25.12,35.73,-1.31,-1.31,-1.30
60.35,-29.49,-28.16,-29.49,-28.16,28.15,24.87,35.91,-1.34,-1.33,-1.33
60.96,-29.32,-27.98,-29.32,-27.97,27.97,24.62,36.03,-1.35,-1.36,-1.34
61.57,-29.16,-27.77,-29.16,-27.78,27.78,24.38,36.08,-1.38,-1.38,-1.39
62.18,-29.00,-27.58,-29.00,-27.59,27.59,24.14,36.06,-1.41,-1.41,-1.42
62.80,-28.84,-27.41,-28.84,-27.40,27.41,23.90,35.96,-1.43,-1.43,-1.43
63.43,-28.68,-27.21,-28.68,-27.22,27.22,23.66,35.77,-1.46,-1.46,-1.47
64.07,-28.52,-27.03,-28.52,-27.04,27.04,23.42,35.51,-1.48,-1.48,-1.49
64.71,-28.36,-26.86,-28.36,-26.86,26.85,23.19,35.18,-1.51,-1.51,-1.50
65.35,-28.20,-26.68,-28.20,-26.68,26.68,22.96,34.80,-1.52,-1.52,-1.52
66.01,-28.03,-26.50,-28.03,-26.50,26.50,22.72,34.36,-1.53,-1.53,-1.53
66.67,-27.86,-26.32,-27.86,-26.32,26.32,22.50,33.90,-1.54,-1.54,-1.54
67.33,-27.69,-26.14,-27.69,-26.14,26.15,22.27,33.41,-1.54,-1.54,-1.55
68.01,-27.53,-25.97,-27.53,-25.97,25.98,22.04,32.91,-1.55,-1.55,-1.56
68.69,-27.36,-25.79,-27.36,-25.80,25.80,21.82,32.40,-1.56,-1.56,-1.57
69.37,-27.20,-25.63,-27.20,-25.63,25.62,21.60,31.89,-1.58,-1.58,-1.57
70.07,-27.03,-25.45,-27.03,-25.46,25.44,21.38,31.38,-1.59,-1.59,-1.58
70.77,-26.86,-25.28,-26.86,-25.27,25.26,21.16,30.89,-1.60,-1.59,-1.58
71.48,-26.68,-25.09,-26.68,-25.08,25.08,20.94,30.40,-1.60,-1.60,-1.59
72.19,-26.49,-24.88,-26.49,-24.89,24.89,20.73,29.92,-1.60,-1.60,-1.61
72.91,-26.31,-24.70,-26.31,-24.70,24.71,20.51,29.46,-1.60,-1.61,-1.61
73.64,-26.14,-24.51,-26.14,-24.51,24.52,20.30,29.01,-1.62,-1.62,-1.63
74.38,-25.96,-24.32,-25.96,-24.32,24.32,20.09,28.57,-1.64,-1.64,-1.64
75.12,-25.79,-24.13,-25.79,-24.13,24.13,19.88,28.15,-1.66,-1.66,-1.66
75.87,-25.61,-23.94,-25.61,-23.94,23.94,19.67,27.74,-1.67,-1.67,-1.67
76.63,-25.43,-23.75,-25.43,-23.75,23.74,19.46,27.34,-1.69,-1.69,-1.68
77.40,-25.25,-23.55,-25.25,-23.55,23.55,19.26,26.96,-1.70,-1.70,-1.70
78.17,-25.07,-23.35,-25.07,-23.35,23.35,19.05,26.58,-1.72,-1.71,-1.72
78.95,-24.88,-23.16,-24.88,-23.16,23.16,18.85,26.23,-1.72,-1.72,-1.72
79.74,-24.69,-22.96,-24.69,-22.96,22.96,18.65,25.88,-1.73,-1.73,-1.73
80.54,-24.50,-22.76,-24.50,-22.76,22.77,18.45,25.55,-1.73,-1.73,-1.74
81.35,-24.32,-22.57,-24.32,-22.57,22.58,18.25,25.22,-1.74,-1.74,-1.75
82.16,-24.14,-22.38,-24.14,-22.39,22.39,18.05,24.91,-1.75,-1.75,-1.76
82.98,-23.96,-22.21,-23.96,-22.20,22.20,17.86,24.61,-1.76,-1.76,-1.75
83.81,-23.78,-22.02,-23.78,-22.02,22.01,17.66,24.32,-1.77,-1.77,-1.76
84.65,-23.59,-21.82,-23.59,-21.83,21.83,17.47,24.04,-1.76,-1.76,-1.77
85.50,-23.40,-21.64,-23.40,-21.64,21.64,17.28,23.77,-1.76,-1.76,-1.76
86.35,-23.21,-21.45,-23.21,-21.45,21.46,17.09,23.52,-1.75,-1.75,-1.76
87.22,-23.03,-21.26,-23.03,-21.27,21.27,16.90,23.27,-1.76,-1.76,-1.77
88.09,-22.85,-21.08,-22.86,-21.09,21.08,16.71,23.03,-1.77,-1.77,-1.77
88.97,-22.69,-20.91,-22.68,-20.91,20.90,16.52,22.79,-1.79,-1.79,-1.78
89.86,-22.51,-20.72,-22.51,-20.72,20.70,16.33,22.57,-1.81,-1.80,-1.79
90.76,-22.32,-20.51,-22.32,-20.51,20.51,16.15,22.36,-1.81,-1.81,-1.81
91.66,-22.13,-20.30,-22.13,-20.30,20.31,15.96,22.15,-1.82,-1.82,-1.83
92.58,-21.95,-20.09,-21.95,-20.10,20.11,15.78,21.95,-1.84,-1.84,-1.86
93.51,-21.77,-19.89,-21.77,-19.89,19.89,15.60,21.76,-1.88,-1.88,-1.88
94.44,-21.60,-19.69,-21.59,-19.68,19.67,15.42,21.58,-1.93,-1.92,-1.91
95.39,-21.41,-19.46,-21.41,-19.46,19.44,15.24,21.41,-1.97,-1.97,-1.95
96.34,-21.21,-19.22,-21.21,-19.22,19.20,15.06,21.24,-2.01,-2.01,-1.99
97.30,-21.01,-18.96,-21.01,-18.97,18.96,14.88,21.08,-2.05,-2.05,-2.05
98.28,-20.82,-18.72,-20.82,-18.72,18.72,14.70,20.92,-2.10,-2.10,-2.10
99.26,-20.63,-18.48,-20.62,-18.47,18.49,14.53,20.77,-2.14,-2.14,-2.15
100.25,-20.44,-18.23,-20.43,-18.22,18.25,14.35,20.63,-2.18,-2.18,-2.21
101.25,-20.25,-17.98,-20.26,-17.99,18.03,14.18,20.49,-2.22,-2.23,-2.27
102.27,-20.10,-17.77,-20.12,-17.79,17.81,14.00,20.35,-2.29,-2.31,-2.33
103.29,-20.00,-17.61,-19.99,-17.60,17.59,13.83,20.22,-2.41,-2.40,-2.39
104.32,-19.88,-17.44,-19.86,-17.41,17.39,13.66,20.10,-2.49,-2.48,-2.44
105.37,-19.71,-17.20,-19.71,-17.21,17.18,13.49,19.97,-2.53,-2.53,-2.51
106.42,-19.54,-16.97,-19.55,-16.98,16.98,13.32,19.85,-2.56,-2.57,-2.57
107.48,-19.38,-16.76,-19.38,-16.76,16.77,13.15,19.73,-2.61,-2.61,-2.62
108.56,-19.23,-16.55,-19.23,-16.55,16.56,12.99,19.61,-2.67,-2.67,-2.68
109.64,-19.08,-16.34,-19.08,-16.35,16.34,12.82,19.49,-2.74,-2.74,-2.74
110.74,-18.93,-16.14,-18.93,-16.14,16.13,12.66,19.37,-2.80,-2.80,-2.79
111.85,-18.77,-15.94,-18.77,-15.93,15.92,12.49,19.25,-2.85,-2.84,-2.83
112.97,-18.60,-15.70,-18.60,-15.71,15.72,12.33,19.12,-2.88,-2.87,-2.90
114.10,-18.44,-15.50,-18.44,-15.50,15.53,12.16,19.00,-2.91,-2.92,-2.94
115.24,-18.29,-15.30,-18.32,-15.33,15.34,12.00,18.86,-2.95,-2.98,-2.99
116.39,-18.21,-15.17,-18.19,-15.16,15.15,11.84,18.73,-3.06,-3.05,-3.04
117.55,-18.09,-15.01,-18.06,-14.98,14.96,11.68,18.59,-3.13,-3.11,-3.08
118.73,-17.90,-14.78,-17.91,-14.79,14.78,11.52,18.44,-3.12,-3.13,-3.12
119.92,-17.74,-14.59,-17.74,-14.59,14.60,11.36,18.28,-3.14,-3.14,-3.15
121.12,-17.57,-14.39,-17.59,-14.41,14.43,11.21,18.11,-3.14,-3.16,-3.18
122.33,-17.47,-14.26,-17.46,-14.25,14.26,11.05,17.94,-3.21,-3.20,-3.21
123.55,-17.34,-14.10,-17.32,-14.08,14.09,10.89,17.76,-3.25,-3.23,-3.24
124.79,-17.18,-13.91,-17.19,-13.92,13.92,10.74,17.56,-3.26,-3.27,-3.27
126.03,-17.03,-13.74,-17.06,-13.76,13.76,10.58,17.36,-3.27,-3.30,-3.29
127.29,-16.94,-13.62,-16.93,-13.61,13.60,10.43,17.15,-3.34,-3.33,-3.32
128.57,-16.82,-13.46,-16.79,-13.44,13.43,10.28,16.93,-3.39,-3.36,-3.36
129.85,-16.65,-13.27,-16.66,-13.28,13.27,10.13,16.70,-3.38,-3.39,-3.38
131.15,-16.49,-13.08,-16.52,-13.11,13.11,9.97,16.46,-3.38,-3.41,-3.41
132.46,-16.40,-12.95,-16.37,-12.93,12.94,9.82,16.21,-3.46,-3.43,-3.45
133.79,-16.26,-12.79,-16.25,-12.78,12.78,9.67,15.96,-3.48,-3.47,-3.47
135.12,-16.09,-12.59,-16.12,-12.62,12.62,9.52,15.70,-3.47,-3.50,-3.50
136.48,-16.00,-12.47,-15.98,-12.45,12.46,9.38,15.43,-3.54,-3.52,-3.53
137.84,-15.85,-12.29,-15.86,-12.30,12.30,9.23,15.15,-3.55,-3.57,-3.56
139.22,-15.75,-12.14,-15.74,-12.14,12.14,9.08,14.87,-3.61,-3.60,-3.61
140.61,-15.63,-11.99,-15.62,-11.98,11.98,8.93,14.59,-3.65,-3.64,-3.64
142.02,-15.47,-11.81,-15.49,-11.82,11.82,8.79,14.30,-3.65,-3.67,-3.66
143.44,-15.38,-11.68,-15.36,-11.66,11.66,8.64,14.01,-3.72,-3.70,-3.70
144.87,-15.23,-11.49,-15.24,-11.50,11.51,8.50,13.72,-3.72,-3.73,-3.74
146.32,-15.13,-11.35,-15.12,-11.35,11.35,8.36,13.42,-3.78,-3.77,-3.78
147.78,-14.99,-11.18,-14.99,-11.18,11.19,8.21,13.13,-3.80,-3.80,-3.81
149.26,-14.88,-11.04,-14.88,-11.03,11.03,8.07,12.83,-3.84,-3.84,-3.84
150.75,-14.75,-10.86,-14.76,-10.87,10.87,7.93,12.54,-3.88,-3.88,-3.89
152.26,-14.65,-10.72,-14.64,-10.72,10.71,7.79,12.24,-3.94,-3.93,-3.93
153.78,-14.52,-10.56,-14.52,-10.55,10.54,7.65,11.95,-3.98,-3.98,-3.96
155.32,-14.40,-10.39,-14.39,-10.39,10.37,7.51,11.65,-4.03,-4.02,-4.01
156.88,-14.24,-10.20,-14.25,-10.20,10.20,7.37,11.36,-4.04,-4.05,-4.04
158.44,-14.12,-10.02,-14.11,-10.01,10.02,7.23,11.07,-4.09,-4.08,-4.10
160.03,-13.95,-9.81,-13.98,-9.84,9.85,7.09,10.78,-4.10,-4.13,-4.14
161.63,-13.85,-9.66,-13.85,-9.66,9.66,6.96,10.50,-4.19,-4.18,-4.19
163.24,-13.74,-9.51,-13.71,-9.48,9.48,6.82,10.21,-4.26,-4.23,-4.23
164.88,-13.55,-9.28,-13.58,-9.31,9.30,6.68,9.93,-4.25,-4.28,-4.27
166.53,-13.42,-9.11,-13.42,-9.11,9.11,6.55,9.65,-4.31,-4.32,-4.31
168.19,-13.29,-8.94,-13.27,-8.92,8.92,6.41,9.38,-4.37,-4.35,-4.35
169.87,-13.11,-8.72,-13.13,-8.74,8.73,6.28,9.10,-4.38,-4.40,-4.39
171.57,-12.96,-8.54,-12.97,-8.54,8.54,6.14,8.83,-4.42,-4.43,-4.42
173.29,-12.83,-8.37,-12.80,-8.34,8.34,6.01,8.56,-4.49,-4.45,-4.46
175.02,-12.61,-8.11,-12.64,-8.14,8.15,5.88,8.29,-4.46,-4.49,-4.50
176.77,-12.47,-7.94,-12.48,-7.94,7.96,5.74,8.03,-4.51,-4.52,-4.53
178.54,-12.33,-7.77,-12.33,-7.76,7.77,5.61,7.77,-4.56,-4.56,-4.56
180.32,-12.18,-7.59,-12.18,-7.59,7.58,5.48,7.51,-4.60,-4.60,-4.59
182.13,-12.03,-7.42,-12.01,-7.40,7.39,5.35,7.25,-4.64,-4.62,-4.61
183.95,-11.82,-7.19,-11.84,-7.21,7.21,5.22,7.00,-4.61,-4.63,-4.63
185.79,-11.68,-7.03,-11.68,-7.03,7.04,5.09,6.75,-4.64,-4.64,-4.65
187.65,-11.53,-6.86,-11.52,-6.85,6.87,4.96,6.50,-4.66,-4.65,-4.67
189.52,-11.37,-6.69,-11.37,-6.69,6.70,4.83,6.25,-4.67,-4.68,-4.68
191.42,-11.22,-6.52,-11.22,-6.52,6.53,4.70,6.01,-4.69,-4.70,-4.70
193.33,-11.07,-6.36,-11.07,-6.36,6.36,4.57,5.76,-4.71,-4.71,-4.71
195.27,-10.92,-6.20,-10.92,-6.20,6.19,4.44,5.52,-4.73,-4.73,-4.72
197.22,-10.77,-6.03,-10.77,-6.03,6.02,4.31,5.28,-4.75,-4.74,-4.74
199.19,-10.61,-5.85,-10.61,-5.86,5.85,4.18,5.05,-4.76,-4.76,-4.76
201.18,-10.45,-5.68,-10.45,-5.68,5.68,4.05,4.82,-4.77,-4.77,-4.77
203.19,-10.28,-5.51,-10.28,-5.51,5.51,3.93,4.58,-4.77,-4.78,-4.77
205.23,-10.12,-5.33,-10.12,-5.34,5.33,3.80,4.36,-4.79,-4.79,-4.79
207.28,-9.95,-5.16,-9.95,-5.15,5.15,3.67,4.13,-4.80,-4.80,-4.79
209.35,-9.78,-4.97,-9.78,-4.97,4.97,3.55,3.91,-4.81,-4.81,-4.81
211.44,-9.61,-4.78,-9.62,-4.79,4.79,3.42,3.68,-4.82,-4.82,-4.83
213.56,-9.45,-4.61,-9.44,-4.60,4.61,3.29,3.47,-4.84,-4.83,-4.84
215.69,-9.28,-4.44,-9.27,-4.42,4.43,3.17,3.25,-4.84,-4.84,-4.84
217.85,-9.08,-4.22,-9.11,-4.25,4.25,3.04,3.04,-4.83,-4.86,-4.86
220.03,-8.95,-4.08,-8.94,-4.07,4.07,2.91,2.83,-4.88,-4.88,-4.87
222.23,-8.79,-3.90,-8.78,-3.89,3.88,2.79,2.63,-4.91,-4.90,-4.89
224.45,-8.60,-3.71,-8.60,-3.70,3.69,2.66,2.43,-4.91,-4.91,-4.89
226.70,-8.40,-3.49,-8.40,-3.50,3.49,2.54,2.23,-4.91,-4.91,-4.91
228.96,-8.19,-3.27,-8.22,-3.30,3.30,2.41,2.03,-4.89,-4.92,-4.92
231.25,-8.05,-3.12,-8.03,-3.09,3.10,2.29,1.85,-4.95,-4.92,-4.93
233.57,-7.85,-2.90,-7.85,-2.90,2.90,2.16,1.66,-4.95,-4.94,-4.95
235.90,-7.64,-2.68,-7.66,-2.70,2.70,2.03,1.48,-4.94,-4.96,-4.96
238.26,-7.49,-2.51,-7.48,-2.50,2.50,1.91,1.30,-4.99,-4.98,-4.98
240.64,-7.29,-2.29,-7.31,-2.31,2.30,1.78,1.13,-4.99,-5.01,-5.00
243.05,-7.14,-2.13,-7.12,-2.11,2.10,1.66,0.97,-5.04,-5.02,-5.01
245.48,-6.94,-1.92,-6.93,-1.91,1.91,1.53,0.81,-5.03,-5.02,-5.02
247.93,-6.72,-1.69,-6.74,-1.71,1.73,1.41,0.65,-4.99,-5.02,-5.03
250.41,-6.57,-1.53,-6.55,-1.52,1.54,1.28,0.50,-5.03,-5.01,-5.04
252.92,-6.37,-1.34,-6.38,-1.35,1.36,1.16,0.35,-5.01,-5.02,-5.03
255.45,-6.21,-1.18,-6.21,-1.18,1.18,1.03,0.21,-5.03,-5.04,-5.03
258.00,-6.05,-1.03,-6.04,-1.01,1.00,0.90,0.07,-5.05,-5.04,-5.02
260.58,-5.85,-0.83,-5.86,-0.84,0.82,0.78,-0.06,-5.03,-5.03,-5.02
263.19,-5.67,-0.66,-5.66,-0.65,0.65,0.65,-0.19,-5.02,-5.01,-5.01
265.82,-5.46,-0.46,-5.47,-0.48,0.48,0.52,-0.32,-4.98,-4.99,-5.00
268.48,-5.28,-0.30,-5.29,-0.30,0.31,0.40,-0.44,-4.97,-4.97,-4.98
271.16,-5.12,-0.16,-5.10,-0.13,0.14,0.27,-0.56,-4.98,-4.95,-4.96
273.87,-4.90,0.05,-4.91,0.03,-0.02,0.14,-0.68,-4.92,-4.94,-4.95
276.61,-4.73,0.19,-4.74,0.19,-0.19,0.01,-0.79,-4.92,-4.92,-4.92
279.38,-4.57,0.35,-4.57,0.34,-0.35,-0.11,-0.90,-4.92,-4.92,-4.92
282.17,-4.41,0.49,-4.40,0.50,-0.51,-0.24,-1.01,-4.92,-4.91,-4.90
284.99,-4.24,0.65,-4.22,0.66,-0.67,-0.37,-1.12,-4.91,-4.90,-4.89
287.84,-4.02,0.85,-4.04,0.83,-0.83,-0.50,-1.23,-4.85,-4.87,-4.87
290.72,-3.85,1.00,-3.85,1.00,-0.99,-0.63,-1.33,-4.84,-4.84,-4.85
293.63,-3.67,1.17,-3.67,1.16,-1.16,-0.76,-1.44,-4.83,-4.83,-4.84
296.57,-3.50,1.31,-3.50,1.32,-1.32,-0.89,-1.54,-4.82,-4.82,-4.81
299.53,-3.33,1.47,-3.33,1.47,-1.48,-1.02,-1.65,-4.81,-4.81,-4.80
302.53,-3.15,1.64,-3.15,1.63,-1.63,-1.15,-1.76,-4.78,-4.78,-4.79
305.55,-2.97,1.79,-2.96,1.80,-1.79,-1.28,-1.87,-4.76,-4.75,-4.76
308.61,-2.77,1.97,-2.78,1.96,-1.94,-1.41,-1.98,-4.71,-4.72,-4.74
311.69,-2.59,2.12,-2.60,2.10,-2.10,-1.55,-2.09,-4.69,-4.71,-4.71
314.81,-2.44,2.23,-2.43,2.25,-2.26,-1.68,-2.20,-4.70,-4.70,-4.67
317.96,-2.27,2.39,-2.26,2.40,-2.43,-1.81,-2.31,-4.70,-4.68,-4.66
321.14,-2.06,2.58,-2.06,2.58,-2.59,-1.95,-2.43,-4.65,-4.65,-4.64
324.35,-1.85,2.77,-1.85,2.77,-2.76,-2.08,-2.55,-4.61,-4.61,-4.62
327.59,-1.64,2.96,-1.65,2.94,-2.93,-2.21,-2.67,-4.57,-4.58,-4.60
330.87,-1.47,3.11,-1.46,3.11,-3.10,-2.35,-2.80,-4.57,-4.56,-4.58
334.18,-1.29,3.26,-1.28,3.28,-3.27,-2.48,-2.92,-4.56,-4.55,-4.55
337.52,-1.08,3.45,-1.09,3.44,-3.44,-2.62,-3.05,-4.52,-4.53,-4.53
340.90,-0.91,3.60,-0.91,3.60,-3.60,-2.76,-3.19,-4.51,-4.51,-4.51
344.30,-0.72,3.76,-0.72,3.76,-3.76,-2.89,-3.32,-4.48,-4.49,-4.48
347.75,-0.56,3.90,-0.55,3.90,-3.92,-3.03,-3.47,-4.48,-4.47,-4.46
351.23,-0.36,4.07,-0.36,4.07,-4.07,-3.17,-3.61,-4.43,-4.44,-4.43
