frequency,raw,error,smoothed,error_smoothed,equalization,parametric_eq,fixed_band_eq,equalized_raw,equalized_smoothed,target
20.00,-47.08,-45.25,-47.09,-45.28,45.28,0.00,20.18,-1.80,-1.81,-1.83
20.20,-46.85,-45.11,-46.85,-45.12,45.12,0.00,20.44,-1.73,-1.73,-1.74
20.40,-46.62,-44.96,-46.62,-44.96,44.96,0.00,20.70,-1.66,-1.66,-1.66
20.61,-46.38,-44.79,-46.38,-44.79,44.79,0.00,20.96,-1.59,-1.59,-1.59
20.81,-46.15,-44.64,-46.15,-44.63,44.63,0.00,21.23,-1.52,-1.52,-1.50
21.02,-45.92,-44.50,-45.91,-44.46,44.46,0.00,21.51,-1.46,-1.45,-1.42
21.23,-45.69,-44.32,-45.68,-44.29,44.29,0.00,21.80,-1.40,-1.39,-1.37
21.44,-45.46,-44.15,-45.45,-44.12,44.12,0.00,22.09,-1.33,-1.33,-1.31
21.66,-45.22,-43.97,-45.22,-43.95,43.95,0.00,22.38,-1.27,-1.27,-1.26
21.87,-44.99,-43.78,-44.99,-43.78,43.78,0.00,22.69,-1.21,-1.21,-1.21
22.09,-44.76,-43.60,-44.76,-43.60,43.60,0.00,23.00,-1.15,-1.16,-1.16
22.31,-44.54,-43.43,-44.54,-43.43,43.43,0.00,23.32,-1.11,-1.11,-1.11
22.54,-44.31,-43.24,-44.31,-43.24,43.24,0.00,23.64,-1.07,-1.07,-1.07
22.76,-44.09,-43.06,-44.08,-43.06,43.06,0.00,23.98,-1.03,-1.03,-1.03
22.99,-43.86,-42.86,-43.86,-42.87,42.87,0.00,24.32,-0.99,-0.99,-1.00
23.22,-43.64,-42.68,-43.64,-42.69,42.69,0.00,24.67,-0.95,-0.95,-0.96
23.45,-43.42,-42.50,-43.41,-42.50,42.50,0.00,25.04,-0.92,-0.91,-0.92
23.69,-43.19,-42.31,-43.19,-42.32,42.32,0.00,25.41,-0.88,-0.88,-0.88
23.92,-42.97,-42.12,-42.97,-42.13,42.13,0.00,25.80,-0.84,-0.84,-0.84
24.16,-42.75,-41.95,-42.75,-41.95,41.95,0.00,26.19,-0.80,-0.81,-0.79
24.40,-42.54,-41.77,-42.54,-41.77,41.77,0.00,26.60,-0.77,-0.77,-0.76
24.65,-42.33,-41.60,-42.32,-41.59,41.59,0.00,27.03,-0.75,-0.74,-0.74
24.89,-42.11,-41.40,-42.11,-41.41,41.41,0.00,27.46,-0.70,-0.70,-0.71
25.14,-41.90,-41.23,-41.90,-41.23,41.23,0.00,27.92,-0.67,-0.67,-0.67
25.39,-41.69,-41.05,-41.69,-41.05,41.05,0.00,28.39,-0.63,-0.64,-0.64
25.65,-41.48,-40.88,-41.48,-40.88,40.88,0.00,28.87,-0.60,-0.60,-0.60
25.91,-41.28,-40.70,-41.28,-40.70,40.70,0.00,29.38,-0.58,-0.57,-0.58
26.16,-41.07,-40.52,-41.07,-40.53,40.53,0.00,29.91,-0.54,-0.54,-0.55
26.43,-40.88,-40.37,-40.87,-40.36,40.36,0.00,30.46,-0.52,-0.51,-0.51
26.69,-40.68,-40.20,-40.68,-40.19,40.19,0.00,31.04,-0.49,-0.48,-0.48
26.96,-40.48,-40.03,-40.48,-40.03,40.03,0.00,31.64,-0.46,-0.46,-0.46
27.23,-40.29,-39.87,-40.29,-39.86,39.86,0.00,32.27,-0.43,-0.42,-0.42
27.50,-40.10,-39.71,-40.10,-39.70,39.70,0.00,32.93,-0.40,-0.40,-0.39
27.77,-39.91,-39.54,-39.91,-39.55,39.55,0.00,33.62,-0.36,-0.37,-0.37
28.05,-39.73,-39.40,-39.73,-39.39,39.39,0.00,34.35,-0.34,-0.34,-0.33
28.33,-39.55,-39.24,-39.55,-39.24,39.24,0.00,35.12,-0.31,-0.31,-0.31
28.62,-39.38,-39.10,-39.37,-39.09,39.09,0.00,35.92,-0.29,-0.28,-0.29
28.90,-39.20,-38.95,-39.20,-38.95,38.95,0.00,36.76,-0.25,-0.25,-0.25
29.19,-39.03,-38.80,-39.03,-38.81,38.81,0.00,37.63,-0.22,-0.22,-0.23
29.48,-38.87,-38.69,-38.87,-38.68,38.68,0.00,38.53,-0.19,-0.19,-0.18
29.78,-38.70,-38.54,-38.71,-38.55,38.55,0.00,39.42,-0.15,-0.16,-0.16
30.08,-38.55,-38.42,-38.56,-38.42,38.42,0.00,40.28,-0.13,-0.14,-0.14
30.38,-38.41,-38.30,-38.41,-38.30,38.30,0.00,41.05,-0.11,-0.11,-0.11
30.68,-38.27,-38.19,-38.27,-38.19,38.19,0.00,41.67,-0.08,-0.08,-0.08
30.99,-38.14,-38.08,-38.14,-38.08,38.08,0.00,42.05,-0.06,-0.06,-0.06
31.30,-38.01,-37.98,-38.01,-37.98,37.98,0.00,42.15,-0.03,-0.03,-0.03
31.61,-37.89,-37.88,-37.89,-37.88,37.88,0.00,41.98,-0.01,-0.01,-0.01
31.93,-37.77,-37.78,-37.77,-37.79,37.79,0.00,41.57,0.02,0.02,0.01
32.24,-37.66,-37.69,-37.67,-37.70,37.70,0.00,41.02,0.05,0.04,0.03
32.57,-37.56,-37.62,-37.56,-37.62,37.62,0.00,40.38,0.06,0.06,0.06
32.89,-37.46,-37.54,-37.47,-37.54,37.54,0.00,39.71,0.08,0.08,0.08
33.22,-37.37,-37.47,-37.38,-37.47,37.47,0.00,39.04,0.10,0.10,0.10
33.55,-37.29,-37.41,-37.29,-37.40,37.40,0.00,38.40,0.11,0.11,0.12
33.89,-37.21,-37.33,-37.21,-37.34,37.34,0.00,37.79,0.13,0.13,0.12
34.23,-37.13,-37.28,-37.13,-37.27,37.27,0.00,37.21,0.14,0.14,0.15
34.57,-37.06,-37.22,-37.06,-37.21,37.21,0.00,36.68,0.15,0.15,0.16
34.92,-36.99,-37.15,-36.99,-37.16,37.16,0.00,36.18,0.17,0.16,0.16
35.27,-36.92,-37.10,-36.93,-37.10,37.10,0.00,35.72,0.18,0.17,0.18
35.62,-36.86,-37.04,-36.87,-37.05,37.05,0.00,35.29,0.19,0.18,0.18
35.97,-36.80,-36.98,-36.81,-36.99,36.99,0.00,34.90,0.19,0.19,0.18
36.33,-36.75,-36.95,-36.75,-36.94,36.94,0.00,34.54,0.19,0.19,0.20
36.70,-36.69,-36.88,-36.69,-36.88,36.88,0.00,34.20,0.19,0.19,0.19
37.06,-36.64,-36.83,-36.63,-36.82,36.82,0.00,33.89,0.18,0.19,0.19
37.43,-36.58,-36.77,-36.57,-36.76,36.76,0.00,33.60,0.18,0.19,0.19
37.81,-36.52,-36.71,-36.51,-36.70,36.70,0.00,33.34,0.18,0.19,0.19
38.19,-36.46,-36.64,-36.45,-36.64,36.64,0.00,33.10,0.18,0.19,0.18
38.57,-36.39,-36.58,-36.39,-36.57,36.57,0.00,32.87,0.18,0.18,0.19
38.95,-36.33,-36.51,-36.33,-36.50,36.50,0.00,32.67,0.17,0.18,0.18
39.34,-36.25,-36.42,-36.26,-36.43,36.43,0.00,32.49,0.18,0.17,0.17
39.74,-36.18,-36.34,-36.19,-36.35,36.35,0.00,32.32,0.17,0.17,0.16
40.14,-36.10,-36.25,-36.11,-36.27,36.27,0.00,32.17,0.17,0.16,0.15
40.54,-36.03,-36.18,-36.03,-36.18,36.18,0.00,32.03,0.15,0.15,0.15
40.94,-35.95,-36.09,-35.94,-36.09,36.09,0.00,31.91,0.14,0.14,0.14
41.35,-35.86,-35.99,-35.85,-35.98,35.98,0.00,31.81,0.13,0.13,0.13
41.76,-35.76,-35.89,-35.75,-35.88,35.88,0.00,31.71,0.12,0.12,0.13
42.18,-35.66,-35.78,-35.65,-35.76,35.76,0.00,31.64,0.10,0.11,0.12
42.60,-35.55,-35.65,-35.54,-35.64,35.64,0.00,31.57,0.09,0.10,0.10
43.03,-35.43,-35.53,-35.42,-35.51,35.51,0.00,31.52,0.08,0.09,0.10
43.46,-35.30,-35.38,-35.29,-35.37,35.37,0.00,31.48,0.07,0.08,0.08
43.90,-35.16,-35.23,-35.16,-35.23,35.23,0.00,31.46,0.07,0.07,0.07
44.33,-35.02,-35.07,-35.02,-35.07,35.07,0.00,31.45,0.06,0.05,0.05
44.78,-34.87,-34.91,-34.87,-34.91,34.91,0.00,31.45,0.04,0.04,0.04
45.23,-34.72,-34.74,-34.72,-34.75,34.75,0.00,31.46,0.02,0.03,0.02
45.68,-34.56,-34.57,-34.55,-34.57,34.57,0.00,31.48,0.01,0.02,0.01
46.13,-34.40,-34.40,-34.39,-34.39,34.39,0.00,31.52,-0.01,0.00,-0.00
46.60,-34.22,-34.22,-34.21,-34.21,34.21,0.00,31.57,-0.02,-0.01,-0.00
47.06,-34.04,-34.02,-34.04,-34.02,34.02,0.00,31.64,-0.02,-0.02,-0.01
47.53,-33.85,-33.82,-33.85,-33.82,33.82,0.00,31.71,-0.03,-0.03,-0.03
48.01,-33.66,-33.63,-33.67,-33.63,33.63,0.00,31.80,-0.03,-0.04,-0.03
48.49,-33.47,-33.43,-33.48,-33.43,33.43,0.00,31.91,-0.04,-0.05,-0.04
48.97,-33.29,-33.23,-33.29,-33.23,33.23,0.00,32.02,-0.06,-0.06,-0.05
49.46,-33.09,-33.01,-33.09,-33.03,33.03,0.00,32.15,-0.06,-0.06,-0.08
49.96,-32.90,-32.81,-32.90,-32.83,32.83,0.00,32.30,-0.07,-0.07,-0.09
50.46,-32.70,-32.62,-32.70,-32.62,32.62,0.00,32.46,-0.08,-0.08,-0.09
50.96,-32.51,-32.43,-32.51,-32.42,32.42,0.00,32.63,-0.09,-0.08,-0.08
51.47,-32.31,-32.21,-32.31,-32.22,32.22,0.00,32.82,-0.09,-0.09,-0.10
51.99,-32.12,-32.02,-32.12,-32.02,32.02,0.00,33.03,-0.10,-0.10,-0.10
52.51,-31.92,-31.82,-31.93,-31.82,31.82,0.00,33.25,-0.10,-0.11,-0.10
53.03,-31.73,-31.62,-31.74,-31.63,31.63,0.00,33.48,-0.10,-0.11,-0.11
53.56,-31.54,-31.43,-31.55,-31.43,31.43,0.00,33.73,-0.11,-0.12,-0.11
54.10,-31.36,-31.24,-31.37,-31.24,31.24,0.00,34.00,-0.12,-0.13,-0.12
54.64,-31.18,-31.04,-31.18,-31.04,31.04,0.00,34.29,-0.14,-0.14,-0.14
55.18,-31.00,-30.85,-31.00,-30.85,30.85,0.00,34.58,-0.15,-0.15,-0.15
55.74,-30.83,-30.66,-30.83,-30.66,30.66,0.00,34.90,-0.17,-0.16,-0.17
56.29,-30.66,-30.48,-30.65,-30.47,30.47,0.00,35.22,-0.19,-0.18,-0.18
56.86,-30.48,-30.28,-30.48,-30.28,30.28,0.00,35.55,-0.20,-0.20,-0.20
57.42,-30.31,-30.08,-30.31,-30.09,30.09,0.00,35.88,-0.22,-0.22,-0.22
58.00,-30.14,-29.90,-30.14,-29.90,29.90,0.00,36.21,-0.24,-0.24,-0.24
58.58,-29.97,-29.71,-29.98,-29.71,29.71,0.00,36.53,-0.26,-0.26,-0.26
59.16,-29.81,-29.53,-29.81,-29.52,29.52,0.00,36.83,-0.29,-0.29,-0.28
59.76,-29.65,-29.35,-29.65,-29.33,29.33,0.00,37.10,-0.32,-0.32,-0.30
60.35,-29.49,-29.15,-29.49,-29.14,29.14,0.00,37.32,-0.35,-0.34,-0.34
60.96,-29.32,-28.97,-29.32,-28.95,28.95,0.00,37.47,-0.37,-0.37,-0.35
61.57,-29.16,-28.76,-29.16,-28.76,28.76,0.00,37.55,-0.40,-0.40,-0.40
62.18,-29.00,-28.56,-29.00,-28.57,28.57,0.00,37.54,-0.43,-0.43,-0.44
62.80,-28.84,-28.38,-28.84,-28.38,28.38,0.00,37.43,-0.45,-0.45,-0.46
63.43,-28.68,-28.18,-28.68,-28.20,28.20,0.00,37.23,-0.48,-0.48,-0.50
64.07,-28.52,-28.00,-28.52,-28.01,28.01,0.00,36.94,-0.51,-0.51,-0.52
64.71,-28.36,-27.82,-28.36,-27.82,27.82,0.00,36.57,-0.54,-0.53,-0.54
65.35,-28.20,-27.64,-28.19,-27.64,27.64,0.00,36.14,-0.56,-0.55,-0.56
66.01,-28.03,-27.45,-28.03,-27.46,27.46,0.00,35.66,-0.58,-0.57,-0.58
66.67,-27.86,-27.27,-27.86,-27.27,27.27,0.00,35.15,-0.59,-0.59,-0.59
67.33,-27.69,-27.08,-27.70,-27.09,27.09,0.00,34.62,-0.60,-0.61,-0.61
68.01,-27.53,-26.91,-27.53,-26.91,26.91,0.00,34.08,-0.62,-0.62,-0.62
68.69,-27.36,-26.72,-27.36,-26.72,26.72,0.00,33.54,-0.64,-0.64,-0.64
69.37,-27.20,-26.55,-27.19,-26.54,26.54,0.00,33.00,-0.66,-0.65,-0.65
70.07,-27.03,-26.36,-27.02,-26.35,26.35,0.00,32.47,-0.68,-0.67,-0.67
70.77,-26.86,-26.19,-26.85,-26.16,26.16,0.00,31.95,-0.70,-0.68,-0.67
71.48,-26.68,-25.99,-26.67,-25.98,25.98,0.00,31.44,-0.71,-0.70,-0.69
72.19,-26.49,-25.78,-26.50,-25.78,25.78,0.00,30.95,-0.71,-0.71,-0.71
72.91,-26.31,-25.58,-26.32,-25.59,25.59,0.00,30.47,-0.72,-0.73,-0.73
73.64,-26.14,-25.39,-26.15,-25.39,25.39,0.00,30.00,-0.74,-0.75,-0.75
74.38,-25.96,-25.20,-25.97,-25.20,25.20,0.00,29.56,-0.76,-0.77,-0.77
75.12,-25.79,-25.00,-25.79,-25.00,25.00,0.00,29.12,-0.79,-0.79,-0.79
75.87,-25.61,-24.80,-25.61,-24.80,24.80,0.00,28.71,-0.81,-0.81,-0.81
76.63,-25.43,-24.60,-25.42,-24.59,24.59,0.00,28.30,-0.84,-0.83,-0.83
77.40,-25.25,-24.39,-25.24,-24.39,24.39,0.00,27.92,-0.86,-0.85,-0.86
78.17,-25.07,-24.18,-25.06,-24.19,24.19,0.00,27.54,-0.88,-0.87,-0.89
78.95,-24.88,-23.99,-24.88,-23.99,23.99,0.00,27.18,-0.89,-0.89,-0.89
79.74,-24.69,-23.78,-24.69,-23.79,23.79,0.00,26.83,-0.90,-0.91,-0.91
80.54,-24.50,-23.57,-24.51,-23.59,23.59,0.00,26.50,-0.91,-0.92,-0.93
81.35,-24.32,-23.38,-24.32,-23.39,23.39,0.00,26.17,-0.93,-0.94,-0.95
82.16,-24.14,-23.18,-24.14,-23.19,23.19,0.00,25.86,-0.95,-0.95,-0.96
82.98,-23.96,-22.99,-23.96,-22.99,22.99,0.00,25.56,-0.97,-0.96,-0.97
83.81,-23.78,-22.80,-23.77,-22.80,22.80,0.00,25.27,-0.98,-0.97,-0.98
84.65,-23.59,-22.59,-23.59,-22.60,22.60,0.00,24.99,-0.99,-0.99,-1.00
85.50,-23.40,-22.40,-23.40,-22.41,22.41,0.00,24.73,-0.99,-1.00,-1.00
86.35,-23.21,-22.20,-23.22,-22.21,22.21,0.00,24.47,-1.00,-1.01,-1.01
87.22,-23.03,-22.00,-23.04,-22.02,22.02,0.00,24.22,-1.01,-1.02,-1.03
88.09,-22.85,-21.81,-22.86,-21.82,21.82,0.00,23.98,-1.03,-1.04,-1.04
88.97,-22.69,-21.64,-22.68,-21.63,21.63,0.00,23.76,-1.06,-1.06,-1.05
89.86,-22.51,-21.44,-22.50,-21.42,21.42,0.00,23.54,-1.09,-1.08,-1.07
90.76,-22.32,-21.22,-22.32,-21.21,21.21,0.00,23.33,-1.11,-1.10,-1.10
91.66,-22.13,-21.00,-22.13,-21.00,21.00,0.00,23.12,-1.13,-1.13,-1.12
92.58,-21.95,-20.78,-21.94,-20.78,20.78,0.00,22.93,-1.17,-1.17,-1.17
93.51,-21.77,-20.58,-21.75,-20.55,20.55,0.00,22.75,-1.22,-1.20,-1.19
94.44,-21.60,-20.36,-21.56,-20.32,20.32,0.00,22.57,-1.28,-1.25,-1.24
95.39,-21.41,-20.13,-21.38,-20.08,20.08,0.00,22.40,-1.33,-1.30,-1.28
96.34,-21.21,-19.87,-21.20,-19.85,19.85,0.00,22.23,-1.36,-1.35,-1.34
97.30,-21.01,-19.60,-21.01,-19.61,19.61,0.00,22.08,-1.40,-1.40,-1.40
98.28,-20.82,-19.36,-20.83,-19.37,19.37,0.00,21.93,-1.45,-1.46,-1.46
99.26,-20.63,-19.10,-20.66,-19.13,19.13,0.00,21.78,-1.50,-1.53,-1.53
100.25,-20.44,-18.84,-20.49,-18.89,18.89,0.00,21.65,-1.55,-1.59,-1.60
101.25,-20.25,-18.59,-20.32,-18.66,18.66,0.00,21.51,-1.59,-1.66,-1.66
102.27,-20.10,-18.37,-20.15,-18.42,18.42,0.00,21.38,-1.68,-1.73,-1.73
103.29,-20.00,-18.19,-19.99,-18.19,18.19,0.00,21.26,-1.81,-1.80,-1.81
104.32,-19.88,-18.01,-19.83,-17.96,17.96,0.00,21.14,-1.92,-1.87,-1.87
105.37,-19.71,-17.77,-19.67,-17.73,17.73,0.00,21.02,-1.98,-1.94,-1.94
106.42,-19.54,-17.53,-19.52,-17.51,17.51,0.00,20.91,-2.03,-2.01,-2.01
107.48,-19.38,-17.30,-19.37,-17.29,17.29,0.00,20.79,-2.09,-2.08,-2.08
108.56,-19.23,-17.08,-19.22,-17.08,17.08,0.00,20.68,-2.15,-2.14,-2.15
109.64,-19.08,-16.87,-19.07,-16.86,16.86,0.00,20.57,-2.22,-2.21,-2.21
110.74,-18.93,-16.66,-18.92,-16.65,16.65,0.00,20.45,-2.28,-2.28,-2.27
111.85,-18.77,-16.44,-18.78,-16.44,16.44,0.00,20.33,-2.33,-2.34,-2.33
112.97,-18.60,-16.19,-18.63,-16.23,16.23,0.00,20.22,-2.37,-2.40,-2.41
114.10,-18.44,-15.99,-18.48,-16.02,16.02,0.00,20.09,-2.42,-2.46,-2.45
115.24,-18.29,-15.77,-18.32,-15.81,15.81,0.00,19.96,-2.48,-2.51,-2.52
116.39,-18.21,-15.64,-18.17,-15.61,15.61,0.00,19.83,-2.60,-2.56,-2.57
117.55,-18.09,-15.47,-18.03,-15.42,15.42,0.00,19.69,-2.67,-2.61,-2.62
118.73,-17.90,-15.23,-17.89,-15.23,15.23,0.00,19.54,-2.67,-2.66,-2.67
119.92,-17.74,-15.03,-17.75,-15.04,15.04,0.00,19.38,-2.70,-2.71,-2.71
121.12,-17.57,-14.82,-17.61,-14.86,14.86,0.00,19.22,-2.71,-2.75,-2.75
122.33,-17.47,-14.67,-17.47,-14.67,14.67,0.00,19.04,-2.80,-2.79,-2.80
123.55,-17.34,-14.51,-17.33,-14.50,14.50,0.00,18.85,-2.84,-2.83,-2.83
124.79,-17.18,-14.31,-17.19,-14.32,14.32,0.00,18.65,-2.86,-2.87,-2.87
126.03,-17.03,-14.13,-17.06,-14.15,14.15,0.00,18.44,-2.88,-2.91,-2.90
127.29,-16.94,-14.00,-16.92,-13.97,13.97,0.00,18.22,-2.97,-2.95,-2.94
128.57,-16.82,-13.83,-16.78,-13.80,13.80,0.00,17.99,-3.03,-2.99,-2.99
129.85,-16.65,-13.63,-16.65,-13.62,13.62,0.00,17.75,-3.03,-3.02,-3.02
131.15,-16.49,-13.43,-16.51,-13.45,13.45,0.00,17.50,-3.04,-3.06,-3.06
132.46,-16.40,-13.29,-16.38,-13.28,13.28,0.00,17.24,-3.12,-3.10,-3.11
133.79,-16.26,-13.13,-16.25,-13.11,13.11,0.00,16.97,-3.15,-3.14,-3.13
135.12,-16.09,-12.91,-16.13,-12.94,12.94,0.00,16.69,-3.15,-3.18,-3.18
136.48,-16.00,-12.79,-15.99,-12.77,12.77,0.00,16.40,-3.23,-3.22,-3.22
137.84,-15.85,-12.59,-15.87,-12.60,12.60,0.00,16.11,-3.25,-3.26,-3.26
139.22,-15.75,-12.44,-15.74,-12.44,12.44,0.00,15.81,-3.31,-3.30,-3.31
140.61,-15.63,-12.28,-15.62,-12.27,12.27,0.00,15.51,-3.36,-3.35,-3.35
142.02,-15.47,-12.08,-15.49,-12.10,12.10,0.00,15.20,-3.37,-3.39,-3.39
143.44,-15.38,-11.95,-15.37,-11.94,11.94,0.00,14.89,-3.44,-3.43,-3.43
144.87,-15.23,-11.75,-15.25,-11.77,11.77,0.00,14.58,-3.46,-3.48,-3.48
146.32,-15.13,-11.61,-15.12,-11.60,11.60,0.00,14.27,-3.52,-3.52,-3.52
147.78,-14.99,-11.43,-15.00,-11.44,11.44,0.00,13.95,-3.55,-3.57,-3.56
149.26,-14.88,-11.27,-14.88,-11.27,11.27,0.00,13.63,-3.61,-3.61,-3.61
150.75,-14.75,-11.09,-14.76,-11.10,11.10,0.00,13.32,-3.65,-3.66,-3.66
152.26,-14.65,-10.94,-14.63,-10.92,10.92,0.00,13.00,-3.73,-3.71,-3.71
153.78,-14.52,-10.77,-14.51,-10.75,10.75,0.00,12.69,-3.77,-3.76,-3.75
155.32,-14.40,-10.60,-14.38,-10.57,10.57,0.00,12.37,-3.83,-3.81,-3.80
156.88,-14.24,-10.40,-14.25,-10.40,10.40,0.00,12.06,-3.85,-3.86,-3.84
158.44,-14.12,-10.21,-14.12,-10.21,10.21,0.00,11.75,-3.90,-3.91,-3.91
160.03,-13.95,-10.00,-13.98,-10.03,10.03,0.00,11.44,-3.92,-3.96,-3.95
161.63,-13.85,-9.84,-13.85,-9.84,9.84,0.00,11.14,-4.01,-4.01,-4.01
163.24,-13.74,-9.68,-13.70,-9.65,9.65,0.00,10.84,-4.09,-4.05,-4.06
164.88,-13.55,-9.44,-13.56,-9.46,9.46,0.00,10.54,-4.09,-4.10,-4.11
166.53,-13.42,-9.27,-13.41,-9.26,9.26,0.00,10.24,-4.16,-4.15,-4.15
168.19,-13.29,-9.09,-13.26,-9.07,9.07,0.00,9.94,-4.22,-4.20,-4.20
169.87,-13.11,-8.87,-13.11,-8.87,8.87,0.00,9.65,-4.24,-4.24,-4.24
171.57,-12.96,-8.68,-12.96,-8.67,8.67,0.00,9.36,-4.29,-4.29,-4.28
173.29,-12.83,-8.50,-12.80,-8.47,8.47,0.00,9.07,-4.36,-4.33,-4.33
175.02,-12.61,-8.24,-12.65,-8.28,8.28,0.00,8.79,-4.33,-4.37,-4.37
176.77,-12.47,-8.06,-12.49,-8.08,8.08,0.00,8.50,-4.39,-4.40,-4.41
178.54,-12.33,-7.88,-12.33,-7.89,7.89,0.00,8.22,-4.44,-4.44,-4.45
180.32,-12.18,-7.70,-12.17,-7.70,7.70,0.00,7.95,-4.48,-4.47,-4.48
182.13,-12.03,-7.53,-12.01,-7.51,7.51,0.00,7.67,-4.52,-4.50,-4.50
183.95,-11.82,-7.29,-11.85,-7.32,7.32,0.00,7.40,-4.50,-4.53,-4.53
185.79,-11.68,-7.12,-11.69,-7.14,7.14,0.00,7.13,-4.54,-4.55,-4.56
187.65,-11.53,-6.95,-11.54,-6.96,6.96,0.00,6.86,-4.57,-4.58,-4.58
189.52,-11.37,-6.77,-11.38,-6.78,6.78,0.00,6.60,-4.59,-4.60,-4.60
191.42,-11.22,-6.60,-11.23,-6.61,6.61,0.00,6.33,-4.61,-4.62,-4.62
193.33,-11.07,-6.44,-11.07,-6.43,6.43,0.00,6.07,-4.64,-4.64,-4.63
195.27,-10.92,-6.27,-10.92,-6.26,6.26,0.00,5.81,-4.66,-4.66,-4.65
197.22,-10.77,-6.10,-10.76,-6.08,6.08,0.00,5.56,-4.69,-4.67,-4.67
199.19,-10.61,-5.91,-10.59,-5.91,5.91,0.00,5.31,-4.70,-4.69,-4.70
201.18,-10.45,-5.74,-10.44,-5.73,5.73,0.00,5.05,-4.72,-4.71,-4.71
203.19,-10.28,-5.56,-10.28,-5.56,5.56,0.00,4.81,-4.72,-4.72,-4.72
205.23,-10.12,-5.38,-10.12,-5.38,5.38,0.00,4.56,-4.74,-4.74,-4.74
207.28,-9.95,-5.20,-9.95,-5.20,5.20,0.00,4.32,-4.75,-4.75,-4.75
209.35,-9.78,-5.02,-9.79,-5.02,5.02,0.00,4.08,-4.76,-4.77,-4.76
211.44,-9.61,-4.82,-9.62,-4.84,4.84,0.00,3.84,-4.77,-4.78,-4.79
213.56,-9.45,-4.65,-9.45,-4.65,4.65,0.00,3.61,-4.80,-4.80,-4.80
215.69,-9.28,-4.48,-9.28,-4.47,4.47,0.00,3.37,-4.81,-4.81,-4.80
217.85,-9.08,-4.25,-9.10,-4.28,4.28,0.00,3.15,-4.80,-4.83,-4.83
220.03,-8.95,-4.11,-8.93,-4.09,4.09,0.00,2.92,-4.86,-4.84,-4.84
222.23,-8.79,-3.92,-8.76,-3.90,3.90,0.00,2.70,-4.89,-4.86,-4.87
224.45,-8.60,-3.73,-8.58,-3.70,3.70,0.00,2.49,-4.90,-4.87,-4.87
226.70,-8.40,-3.51,-8.40,-3.51,3.51,0.00,2.28,-4.89,-4.89,-4.89
228.96,-8.19,-3.29,-8.22,-3.31,3.31,0.00,2.07,-4.88,-4.91,-4.90
231.25,-8.05,-3.14,-8.03,-3.11,3.11,0.00,1.87,-4.94,-4.93,-4.91
233.57,-7.85,-2.92,-7.85,-2.91,2.91,0.00,1.67,-4.94,-4.94,-4.93
235.90,-7.64,-2.68,-7.67,-2.71,2.71,0.00,1.48,-4.93,-4.96,-4.96
238.26,-7.49,-2.51,-7.49,-2.51,2.51,0.00,1.29,-4.98,-4.98,-4.98
240.64,-7.29,-2.29,-7.30,-2.31,2.31,0.00,1.11,-4.98,-4.99,-5.00
243.05,-7.14,-2.13,-7.12,-2.11,2.11,0.00,0.93,-5.03,-5.00,-5.01
245.48,-6.94,-1.92,-6.93,-1.92,1.92,0.00,0.76,-5.02,-5.02,-5.02
247.93,-6.72,-1.69,-6.75,-1.73,1.73,0.00,0.59,-4.99,-5.02,-5.03
250.41,-6.57,-1.52,-6.57,-1.54,1.54,0.00,0.43,-5.03,-5.03,-5.05
252.92,-6.37,-1.33,-6.39,-1.35,1.35,0.00,0.28,-5.02,-5.03,-5.04
255.45,-6.21,-1.17,-6.20,-1.17,1.17,0.00,0.13,-5.04,-5.04,-5.04
258.00,-6.05,-1.01,-6.02,-0.99,0.99,0.00,-0.02,-5.06,-5.03,-5.04
260.58,-5.85,-0.82,-5.84,-0.81,0.81,0.00,-0.16,-5.04,-5.03,-5.03
263.19,-5.67,-0.65,-5.66,-0.64,0.64,0.00,-0.29,-5.03,-5.02,-5.02
265.82,-5.46,-0.44,-5.47,-0.46,0.46,0.00,-0.42,-5.00,-5.01,-5.02
268.48,-5.28,-0.28,-5.29,-0.29,0.29,0.00,-0.55,-4.99,-5.00,-5.00
271.16,-5.12,-0.14,-5.11,-0.12,0.12,0.00,-0.67,-5.00,-4.99,-4.98
273.87,-4.90,0.07,-4.93,0.04,-0.04,0.00,-0.79,-4.94,-4.97,-4.97
276.61,-4.73,0.22,-4.75,0.21,-0.21,0.00,-0.91,-4.94,-4.96,-4.95
279.38,-4.57,0.37,-4.57,0.37,-0.37,0.00,-1.02,-4.94,-4.95,-4.94
282.17,-4.41,0.52,-4.39,0.54,-0.54,0.00,-1.13,-4.95,-4.93,-4.93
284.99,-4.24,0.68,-4.21,0.71,-0.71,0.00,-1.24,-4.95,-4.92,-4.91
287.84,-4.02,0.88,-4.03,0.87,-0.87,0.00,-1.35,-4.89,-4.90,-4.90
290.72,-3.85,1.03,-3.86,1.03,-1.03,0.00,-1.46,-4.88,-4.88,-4.88
293.63,-3.67,1.20,-3.68,1.18,-1.18,0.00,-1.57,-4.85,-4.86,-4.87
296.57,-3.50,1.35,-3.51,1.34,-1.34,0.00,-1.67,-4.84,-4.85,-4.85
299.53,-3.33,1.50,-3.33,1.50,-1.50,0.00,-1.78,-4.83,-4.83,-4.83
302.53,-3.15,1.68,-3.15,1.66,-1.66,0.00,-1.89,-4.81,-4.81,-4.83
305.55,-2.97,1.82,-2.97,1.82,-1.82,0.00,-2.00,-4.79,-4.79,-4.79
308.61,-2.77,2.00,-2.78,1.99,-1.99,0.00,-2.11,-4.76,-4.77,-4.77
311.69,-2.59,2.16,-2.60,2.15,-2.15,0.00,-2.22,-4.74,-4.75,-4.75
314.81,-2.44,2.27,-2.41,2.31,-2.31,0.00,-2.33,-4.75,-4.73,-4.71
317.96,-2.27,2.43,-2.23,2.48,-2.48,0.00,-2.45,-4.75,-4.71,-4.70
321.14,-2.06,2.62,-2.04,2.64,-2.64,0.00,-2.56,-4.70,-4.68,-4.68
324.35,-1.85,2.81,-1.85,2.81,-2.81,0.00,-2.68,-4.66,-4.66,-4.66
327.59,-1.64,3.00,-1.66,2.97,-2.97,0.00,-2.81,-4.61,-4.64,-4.64
330.87,-1.47,3.15,-1.47,3.14,-3.14,0.00,-2.93,-4.61,-4.62,-4.62
334.18,-1.29,3.30,-1.28,3.31,-3.31,0.00,-3.06,-4.60,-4.59,-4.59
337.52,-1.08,3.50,-1.09,3.48,-3.48,0.00,-3.19,-4.56,-4.57,-4.58
340.90,-0.91,3.64,-0.91,3.64,-3.64,0.00,-3.33,-4.55,-4.55,-4.55
344.30,-0.72,3.80,-0.72,3.80,-3.80,0.00,-3.47,-4.52,-4.52,-4.52
347.75,-0.56,3.94,-0.54,3.96,-3.96,0.00,-3.61,-4.52,-4.50,-4.50
351.23,-0.36,4.12,-0.36,4.12,-4.12,0.00,-3.75,-4.48,-4.48,-4.48
354.74,-0.19,4.26,-0.18,4.27,-4.27,0.00,-3.90,-4.46,-4.45,-4.45
358.28,0.01,4.44,-0.02,4.41,-4.41,0.00,-4.06,-4.40,-4.43,-4.43
361.87,0.16,4.56,0.15,4.55,-4.55,0.00,-4.22,-4.39,-4.41,-4.40
365.49,0.32,4.70,0.30,4.68,-4.68,0.00,-4.38,-4.36,-4.38,-4.38
369.14,0.46,4.83,0.45,4.81,-4.81,0.00,-4.54,-4.35,-4.36,-4.37
