frequency,raw,error,smoothed,error_smoothed,equalization,parametric_eq,fixed_band_eq,equalized_raw,equalized_smoothed,target
20.00,7.69,-4.59,7.70,-4.59,4.59,4.37,1.73,12.28,12.28,12.28
20.20,7.71,-4.56,7.71,-4.56,4.56,4.37,1.78,12.27,12.27,12.27
20.40,7.72,-4.54,7.73,-4.53,4.53,4.36,1.84,12.26,12.26,12.26
20.61,7.74,-4.51,7.75,-4.50,4.50,4.36,1.89,12.25,12.25,12.25
20.81,7.76,-4.46,7.76,-4.47,4.47,4.35,1.95,12.24,12.24,12.23
21.02,7.77,-4.44,7.78,-4.45,4.45,4.34,2.01,12.22,12.22,12.22
21.23,7.79,-4.41,7.79,-4.42,4.42,4.34,2.07,12.21,12.21,12.21
21.44,7.81,-4.40,7.81,-4.39,4.39,4.33,2.13,12.21,12.20,12.22
21.66,7.82,-4.37,7.83,-4.37,4.37,4.32,2.20,12.19,12.19,12.20
21.87,7.84,-4.35,7.84,-4.34,4.34,4.31,2.26,12.19,12.19,12.19
22.09,7.86,-4.31,7.86,-4.32,4.32,4.30,2.33,12.18,12.18,12.17
22.31,7.87,-4.30,7.88,-4.29,4.29,4.30,2.40,12.17,12.17,12.17
22.54,7.89,-4.27,7.89,-4.27,4.27,4.29,2.47,12.17,12.16,12.16
22.76,7.90,-4.26,7.91,-4.25,4.25,4.28,2.54,12.15,12.16,12.16
22.99,7.92,-4.22,7.93,-4.23,4.23,4.27,2.62,12.15,12.15,12.15
23.22,7.94,-4.19,7.94,-4.21,4.21,4.26,2.70,12.15,12.15,12.14
23.45,7.95,-4.19,7.96,-4.18,4.18,4.24,2.78,12.14,12.14,12.15
23.69,7.97,-4.16,7.97,-4.16,4.16,4.23,2.86,12.14,12.14,12.14
23.92,7.98,-4.14,7.99,-4.14,4.14,4.22,2.94,12.13,12.13,12.12
24.16,8.00,-4.13,8.01,-4.12,4.12,4.21,3.02,12.13,12.13,12.13
24.40,8.02,-4.11,8.02,-4.10,4.10,4.20,3.10,12.13,12.13,12.13
24.65,8.04,-4.09,8.04,-4.09,4.09,4.18,3.19,12.13,12.12,12.13
24.89,8.05,-4.07,8.05,-4.07,4.07,4.17,3.27,12.12,12.12,12.13
25.14,8.07,-4.04,8.07,-4.05,4.05,4.15,3.36,12.12,12.12,12.12
25.39,8.09,-4.03,8.09,-4.03,4.03,4.14,3.45,12.12,12.12,12.11
25.65,8.10,-4.01,8.10,-4.01,4.01,4.13,3.54,12.12,12.12,12.11
25.91,8.11,-4.00,8.12,-4.00,4.00,4.11,3.62,12.11,12.11,12.11
26.16,8.13,-3.98,8.14,-3.98,3.98,4.09,3.71,12.11,12.11,12.12
26.43,8.15,-3.96,8.15,-3.96,3.96,4.08,3.80,12.12,12.11,12.12
26.69,8.16,-3.95,8.17,-3.95,3.95,4.06,3.88,12.11,12.11,12.11
26.96,8.18,-3.93,8.18,-3.93,3.93,4.05,3.96,12.11,12.11,12.11
27.23,8.19,-3.92,8.20,-3.91,3.91,4.03,4.05,12.11,12.11,12.11
27.50,8.21,-3.89,8.22,-3.90,3.90,4.01,4.12,12.11,12.12,12.11
27.77,8.23,-3.88,8.23,-3.88,3.88,3.99,4.20,12.12,12.12,12.11
28.05,8.24,-3.87,8.25,-3.87,3.87,3.97,4.27,12.11,12.12,12.11
28.33,8.26,-3.85,8.26,-3.85,3.85,3.95,4.34,12.12,12.12,12.12
28.62,8.28,-3.83,8.28,-3.84,3.84,3.93,4.40,12.12,12.12,12.12
28.90,8.29,-3.83,8.30,-3.82,3.82,3.91,4.46,12.12,12.12,12.12
29.19,8.31,-3.81,8.31,-3.80,3.80,3.89,4.51,12.12,12.11,12.12
29.48,8.32,-3.79,8.33,-3.79,3.79,3.87,4.56,12.11,12.11,12.12
29.78,8.34,-3.77,8.34,-3.77,3.77,3.85,4.60,12.11,12.11,12.11
30.08,8.35,-3.76,8.36,-3.75,3.75,3.83,4.63,12.10,12.11,12.11
30.38,8.37,-3.72,8.37,-3.73,3.73,3.81,4.66,12.11,12.10,12.10
30.68,8.38,-3.71,8.39,-3.71,3.71,3.79,4.68,12.10,12.10,12.09
30.99,8.39,-3.69,8.40,-3.69,3.69,3.76,4.69,12.09,12.09,12.09
31.30,8.40,-3.68,8.41,-3.67,3.67,3.74,4.70,12.08,12.08,12.09
31.61,8.42,-3.66,8.43,-3.65,3.65,3.72,4.69,12.07,12.08,12.08
31.93,8.44,-3.61,8.44,-3.63,3.63,3.69,4.68,12.07,12.07,12.06
32.24,8.45,-3.61,8.45,-3.61,3.61,3.67,4.66,12.06,12.06,12.06
32.57,8.46,-3.58,8.47,-3.59,3.59,3.64,4.64,12.05,12.05,12.05
32.89,8.48,-3.56,8.48,-3.56,3.56,3.62,4.60,12.05,12.04,12.04
33.22,8.49,-3.54,8.49,-3.54,3.54,3.59,4.57,12.04,12.04,12.04
33.55,8.50,-3.53,8.51,-3.52,3.52,3.56,4.52,12.03,12.03,12.03
33.89,8.51,-3.50,8.52,-3.50,3.50,3.54,4.47,12.02,12.02,12.02
34.23,8.52,-3.48,8.53,-3.48,3.48,3.51,4.41,12.00,12.01,12.00
34.57,8.53,-3.46,8.54,-3.46,3.46,3.48,4.35,11.99,12.00,11.99
34.92,8.55,-3.42,8.55,-3.44,3.44,3.46,4.29,11.99,11.99,11.98
35.27,8.56,-3.43,8.56,-3.41,3.41,3.43,4.22,11.98,11.98,11.99
35.62,8.57,-3.39,8.57,-3.39,3.39,3.40,4.15,11.97,11.96,11.97
35.97,8.58,-3.37,8.58,-3.37,3.37,3.37,4.07,11.95,11.95,11.96
36.33,8.59,-3.35,8.59,-3.34,3.34,3.34,4.00,11.94,11.93,11.94
36.70,8.59,-3.32,8.60,-3.32,3.32,3.31,3.92,11.91,11.92,11.91
37.06,8.60,-3.29,8.61,-3.29,3.29,3.28,3.84,11.89,11.90,11.90
37.43,8.61,-3.26,8.62,-3.26,3.26,3.25,3.76,11.88,11.88,11.88
37.81,8.62,-3.23,8.62,-3.23,3.23,3.22,3.68,11.86,11.86,11.86
38.19,8.62,-3.21,8.63,-3.20,3.20,3.18,3.60,11.83,11.84,11.83
38.57,8.63,-3.18,8.64,-3.18,3.18,3.15,3.52,11.81,11.81,11.81
38.95,8.64,-3.15,8.64,-3.15,3.15,3.12,3.44,11.79,11.79,11.79
39.34,8.64,-3.12,8.65,-3.12,3.12,3.09,3.36,11.76,11.76,11.76
39.74,8.65,-3.08,8.65,-3.09,3.09,3.05,3.28,11.74,11.74,11.73
40.14,8.65,-3.06,8.66,-3.06,3.06,3.02,3.20,11.71,11.71,11.71
40.54,8.66,-3.03,8.66,-3.03,3.03,2.98,3.13,11.70,11.69,11.69
40.94,8.66,-3.00,8.66,-3.00,3.00,2.95,3.05,11.67,11.67,11.66
41.35,8.66,-2.97,8.66,-2.98,2.98,2.91,2.98,11.64,11.64,11.64
41.76,8.66,-2.94,8.67,-2.95,2.95,2.88,2.91,11.61,11.61,11.61
42.18,8.66,-2.93,8.67,-2.92,2.92,2.84,2.84,11.59,11.59,11.59
42.60,8.66,-2.90,8.67,-2.89,2.89,2.81,2.77,11.56,11.56,11.56
43.03,8.66,-2.87,8.67,-2.87,2.87,2.77,2.71,11.53,11.53,11.54
43.46,8.66,-2.84,8.67,-2.84,2.84,2.73,2.65,11.50,11.51,11.50
43.90,8.66,-2.81,8.67,-2.81,2.81,2.69,2.58,11.48,11.48,11.48
44.33,8.66,-2.78,8.66,-2.78,2.78,2.66,2.52,11.45,11.45,11.44
44.78,8.66,-2.75,8.66,-2.75,2.75,2.62,2.47,11.42,11.41,11.42
45.23,8.66,-2.73,8.66,-2.72,2.72,2.58,2.41,11.38,11.38,11.39
45.68,8.66,-2.68,8.66,-2.68,2.68,2.54,2.36,11.35,11.34,11.35
46.13,8.66,-2.64,8.66,-2.65,2.65,2.50,2.31,11.31,11.31,11.31
46.60,8.65,-2.62,8.66,-2.61,2.61,2.46,2.26,11.26,11.27,11.27
47.06,8.65,-2.58,8.66,-2.57,2.57,2.42,2.21,11.22,11.22,11.23
47.53,8.65,-2.54,8.66,-2.52,2.52,2.38,2.17,11.18,11.18,11.19
48.01,8.65,-2.48,8.66,-2.48,2.48,2.34,2.12,11.13,11.14,11.13
48.49,8.65,-2.44,8.66,-2.44,2.44,2.30,2.08,11.09,11.09,11.09
48.97,8.65,-2.39,8.65,-2.39,2.39,2.25,2.04,11.04,11.05,11.04
49.46,8.65,-2.34,8.65,-2.34,2.34,2.21,2.00,11.00,11.00,11.00
49.96,8.65,-2.28,8.65,-2.30,2.30,2.17,1.96,10.95,10.95,10.94
50.46,8.65,-2.25,8.65,-2.25,2.25,2.13,1.93,10.91,10.90,10.90
50.96,8.65,-2.20,8.65,-2.20,2.20,2.08,1.89,10.86,10.86,10.86
51.47,8.65,-2.16,8.65,-2.16,2.16,2.04,1.86,10.81,10.81,10.81
51.99,8.65,-2.10,8.65,-2.11,2.11,2.00,1.82,10.76,10.76,10.76
52.51,8.65,-2.06,8.65,-2.06,2.06,1.95,1.79,10.72,10.72,10.72
53.03,8.65,-2.03,8.65,-2.01,2.01,1.91,1.76,10.67,10.67,10.68
53.56,8.65,-1.98,8.65,-1.97,1.97,1.86,1.73,10.62,10.62,10.63
54.10,8.65,-1.92,8.65,-1.92,1.92,1.81,1.70,10.58,10.58,10.57
54.64,8.65,-1.88,8.65,-1.88,1.88,1.77,1.67,10.53,10.53,10.53
55.18,8.65,-1.83,8.65,-1.83,1.83,1.72,1.64,10.49,10.49,10.48
55.74,8.65,-1.77,8.65,-1.79,1.79,1.68,1.61,10.44,10.44,10.43
56.29,8.65,-1.74,8.65,-1.74,1.74,1.63,1.58,10.40,10.40,10.40
56.86,8.65,-1.70,8.65,-1.70,1.70,1.58,1.55,10.35,10.35,10.35
57.42,8.65,-1.64,8.65,-1.65,1.65,1.53,1.52,10.31,10.31,10.29
58.00,8.65,-1.59,8.65,-1.60,1.60,1.49,1.48,10.26,10.26,10.25
58.58,8.65,-1.56,8.65,-1.55,1.55,1.44,1.45,10.20,10.20,10.21
59.16,8.65,-1.52,8.65,-1.50,1.50,1.39,1.42,10.15,10.15,10.17
59.76,8.65,-1.47,8.65,-1.44,1.44,1.34,1.38,10.10,10.10,10.12
60.35,8.65,-1.41,8.65,-1.39,1.39,1.29,1.35,10.04,10.04,10.06
60.96,8.65,-1.34,8.65,-1.33,1.33,1.24,1.31,9.99,9.99,10.00
61.57,8.65,-1.27,8.65,-1.27,1.27,1.19,1.28,9.93,9.93,9.93
62.18,8.65,-1.21,8.65,-1.21,1.21,1.14,1.24,9.87,9.87,9.86
62.80,8.65,-1.14,8.65,-1.15,1.15,1.09,1.20,9.81,9.81,9.79
63.43,8.65,-1.07,8.65,-1.09,1.09,1.04,1.15,9.74,9.74,9.73
64.07,8.65,-1.02,8.65,-1.03,1.03,0.99,1.11,9.68,9.68,9.67
64.71,8.65,-0.96,8.65,-0.96,0.96,0.93,1.07,9.62,9.62,9.61
65.35,8.65,-0.89,8.65,-0.90,0.90,0.88,1.02,9.55,9.55,9.55
66.01,8.65,-0.83,8.65,-0.83,0.83,0.83,0.97,9.49,9.49,9.49
66.67,8.65,-0.78,8.65,-0.77,0.77,0.78,0.92,9.43,9.43,9.43
67.33,8.65,-0.71,8.65,-0.71,0.71,0.72,0.87,9.36,9.36,9.36
68.01,8.65,-0.65,8.65,-0.64,0.64,0.67,0.82,9.30,9.30,9.30
68.69,8.65,-0.58,8.65,-0.58,0.58,0.62,0.77,9.24,9.23,9.24
69.37,8.65,-0.52,8.65,-0.52,0.52,0.56,0.71,9.17,9.17,9.18
70.07,8.65,-0.45,8.65,-0.45,0.45,0.51,0.66,9.10,9.10,9.11
70.77,8.65,-0.38,8.66,-0.38,0.38,0.46,0.60,9.03,9.04,9.04
71.48,8.65,-0.32,8.66,-0.31,0.31,0.40,0.54,8.97,8.97,8.97
72.19,8.65,-0.25,8.66,-0.24,0.24,0.35,0.48,8.90,8.90,8.90
72.91,8.65,-0.17,8.66,-0.17,0.17,0.29,0.42,8.83,8.83,8.83
73.64,8.65,-0.11,8.67,-0.10,0.10,0.24,0.36,8.76,8.77,8.76
74.38,8.65,-0.04,8.67,-0.03,0.03,0.18,0.30,8.69,8.70,8.69
75.12,8.66,0.03,8.67,0.03,-0.03,0.12,0.24,8.63,8.64,8.63
75.87,8.67,0.10,8.67,0.10,-0.10,0.07,0.18,8.57,8.57,8.57
76.63,8.68,0.18,8.67,0.16,-0.16,0.01,0.11,8.52,8.51,8.50
77.40,8.68,0.24,8.67,0.22,-0.22,-0.05,0.05,8.46,8.45,8.45
78.17,8.67,0.30,8.67,0.28,-0.28,-0.10,-0.02,8.39,8.39,8.38
78.95,8.66,0.33,8.66,0.33,-0.33,-0.16,-0.08,8.33,8.32,8.33
79.74,8.65,0.39,8.65,0.39,-0.39,-0.22,-0.15,8.27,8.26,8.26
80.54,8.64,0.44,8.63,0.43,-0.43,-0.27,-0.22,8.21,8.20,8.21
81.35,8.62,0.49,8.62,0.48,-0.48,-0.33,-0.28,8.15,8.14,8.14
82.16,8.60,0.52,8.60,0.52,-0.52,-0.39,-0.35,8.09,8.08,8.09
82.98,8.57,0.56,8.57,0.56,-0.56,-0.45,-0.42,8.02,8.01,8.02
83.81,8.55,0.60,8.55,0.60,-0.60,-0.51,-0.49,7.96,7.95,7.95
84.65,8.51,0.63,8.52,0.63,-0.63,-0.57,-0.56,7.88,7.89,7.88
85.50,8.49,0.68,8.49,0.67,-0.67,-0.62,-0.63,7.83,7.82,7.82
86.35,8.46,0.71,8.46,0.70,-0.70,-0.68,-0.70,7.76,7.76,7.75
87.22,8.42,0.74,8.43,0.74,-0.74,-0.74,-0.78,7.68,7.69,7.69
88.09,8.40,0.78,8.41,0.79,-0.79,-0.80,-0.85,7.62,7.62,7.62
88.97,8.37,0.82,8.38,0.83,-0.83,-0.86,-0.92,7.54,7.55,7.55
89.86,8.35,0.87,8.36,0.88,-0.88,-0.92,-1.00,7.47,7.48,7.48
90.76,8.33,0.92,8.35,0.94,-0.94,-0.98,-1.07,7.40,7.41,7.41
91.66,8.32,0.99,8.34,1.00,-1.00,-1.04,-1.15,7.33,7.34,7.34
92.58,8.30,1.03,8.33,1.06,-1.06,-1.10,-1.22,7.25,7.27,7.27
93.51,8.30,1.10,8.32,1.12,-1.12,-1.16,-1.30,7.18,7.19,7.20
94.44,8.30,1.17,8.32,1.19,-1.19,-1.22,-1.38,7.11,7.12,7.13
95.39,8.31,1.27,8.31,1.27,-1.27,-1.28,-1.46,7.05,7.05,7.05
96.34,8.32,1.35,8.31,1.34,-1.34,-1.34,-1.53,6.98,6.97,6.98
97.30,8.33,1.43,8.32,1.42,-1.42,-1.40,-1.61,6.92,6.90,6.90
98.28,8.33,1.52,8.32,1.50,-1.50,-1.46,-1.69,6.84,6.83,6.82
99.26,8.33,1.59,8.33,1.57,-1.57,-1.52,-1.77,6.76,6.75,6.74
100.25,8.33,1.67,8.33,1.65,-1.65,-1.58,-1.85,6.68,6.68,6.67
101.25,8.33,1.73,8.34,1.73,-1.73,-1.64,-1.93,6.60,6.61,6.60
102.27,8.33,1.80,8.35,1.81,-1.81,-1.70,-2.01,6.53,6.54,6.54
103.29,8.33,1.87,8.35,1.88,-1.88,-1.77,-2.09,6.45,6.47,6.46
104.32,8.33,1.94,8.35,1.95,-1.95,-1.83,-2.17,6.38,6.40,6.40
105.37,8.34,2.01,8.35,2.02,-2.02,-1.89,-2.25,6.33,6.33,6.33
106.42,8.35,2.09,8.34,2.08,-2.08,-1.95,-2.33,6.27,6.26,6.27
107.48,8.35,2.16,8.33,2.14,-2.14,-2.01,-2.41,6.21,6.19,6.19
108.56,8.34,2.22,8.32,2.20,-2.20,-2.07,-2.48,6.15,6.12,6.13
109.64,8.33,2.27,8.31,2.25,-2.25,-2.13,-2.56,6.08,6.05,6.06
110.74,8.30,2.32,8.29,2.31,-2.31,-2.19,-2.63,6.00,5.98,5.99
111.85,8.27,2.36,8.26,2.35,-2.35,-2.25,-2.70,5.92,5.91,5.91
112.97,8.23,2.39,8.24,2.40,-2.40,-2.31,-2.77,5.84,5.84,5.85
114.10,8.20,2.43,8.21,2.44,-2.44,-2.37,-2.84,5.76,5.77,5.77
115.24,8.17,2.49,8.18,2.48,-2.48,-2.43,-2.90,5.70,5.70,5.69
116.39,8.14,2.53,8.14,2.52,-2.52,-2.49,-2.96,5.63,5.63,5.62
117.55,8.11,2.57,8.11,2.56,-2.56,-2.55,-3.02,5.56,5.56,5.54
118.73,8.08,2.61,8.09,2.60,-2.60,-2.60,-3.07,5.48,5.49,5.47
119.92,8.04,2.64,8.06,2.65,-2.65,-2.66,-3.12,5.40,5.42,5.41
121.12,8.01,2.67,8.05,2.70,-2.70,-2.72,-3.17,5.32,5.35,5.35
122.33,8.00,2.73,8.03,2.75,-2.75,-2.78,-3.21,5.25,5.28,5.28
123.55,7.99,2.78,8.02,2.81,-2.81,-2.84,-3.25,5.18,5.21,5.22
124.79,7.98,2.83,8.02,2.87,-2.87,-2.89,-3.28,5.11,5.14,5.15
126.03,7.99,2.91,8.01,2.94,-2.94,-2.95,-3.31,5.06,5.07,5.08
127.29,8.00,2.99,8.01,3.00,-3.00,-3.01,-3.34,5.01,5.01,5.02
128.57,8.01,3.08,8.00,3.06,-3.06,-3.06,-3.36,4.95,4.94,4.94
129.85,8.02,3.15,8.00,3.13,-3.13,-3.12,-3.38,4.90,4.87,4.87
131.15,8.02,3.22,7.99,3.19,-3.19,-3.17,-3.40,4.84,4.81,4.80
132.46,8.01,3.28,7.99,3.25,-3.25,-3.23,-3.41,4.77,4.74,4.74
133.79,7.99,3.33,7.97,3.30,-3.30,-3.28,-3.42,4.69,4.67,4.66
135.12,7.97,3.37,7.96,3.35,-3.35,-3.34,-3.43,4.62,4.60,4.60
136.48,7.95,3.41,7.94,3.40,-3.40,-3.39,-3.43,4.56,4.54,4.54
137.84,7.91,3.44,7.91,3.44,-3.44,-3.44,-3.43,4.48,4.48,4.47
139.22,7.89,3.49,7.89,3.47,-3.47,-3.49,-3.43,4.42,4.41,4.41
140.61,7.86,3.51,7.86,3.51,-3.51,-3.54,-3.43,4.36,4.35,4.35
142.02,7.81,3.53,7.83,3.54,-3.54,-3.59,-3.43,4.28,4.29,4.28
143.44,7.78,3.55,7.80,3.57,-3.57,-3.64,-3.42,4.22,4.23,4.23
144.87,7.74,3.57,7.78,3.60,-3.60,-3.69,-3.42,4.14,4.18,4.18
146.32,7.73,3.62,7.75,3.63,-3.63,-3.74,-3.41,4.10,4.12,4.12
147.78,7.70,3.64,7.73,3.67,-3.67,-3.79,-3.41,4.03,4.06,4.07
149.26,7.69,3.69,7.71,3.71,-3.71,-3.83,-3.40,3.99,4.01,4.01
150.75,7.68,3.74,7.69,3.74,-3.74,-3.88,-3.40,3.94,3.95,3.95
152.26,7.67,3.77,7.68,3.78,-3.78,-3.92,-3.40,3.90,3.90,3.90
153.78,7.67,3.83,7.66,3.82,-3.82,-3.97,-3.39,3.86,3.84,3.85
155.32,7.66,3.87,7.64,3.85,-3.85,-4.01,-3.39,3.81,3.79,3.79
156.88,7.64,3.91,7.62,3.89,-3.89,-4.05,-3.39,3.76,3.73,3.74
158.44,7.63,3.96,7.60,3.92,-3.92,-4.09,-3.40,3.71,3.68,3.68
160.03,7.59,3.97,7.58,3.96,-3.96,-4.13,-3.40,3.64,3.62,3.63
161.63,7.57,4.01,7.56,3.99,-3.99,-4.17,-3.41,3.58,3.57,3.57
163.24,7.54,4.03,7.54,4.02,-4.02,-4.20,-3.42,3.52,3.51,3.51
164.88,7.49,4.04,7.51,4.06,-4.06,-4.24,-3.43,3.44,3.45,3.46
166.53,7.47,4.08,7.49,4.09,-4.09,-4.27,-3.44,3.38,3.40,3.39
168.19,7.44,4.10,7.46,4.12,-4.12,-4.31,-3.46,3.32,3.34,3.35
169.87,7.41,4.13,7.44,4.16,-4.16,-4.34,-3.48,3.26,3.28,3.28
171.57,7.39,4.17,7.41,4.19,-4.19,-4.37,-3.50,3.21,3.23,3.22
173.29,7.38,4.21,7.39,4.22,-4.22,-4.40,-3.52,3.16,3.17,3.17
175.02,7.36,4.25,7.37,4.25,-4.25,-4.42,-3.55,3.11,3.11,3.11
176.77,7.34,4.29,7.34,4.29,-4.29,-4.45,-3.58,3.06,3.06,3.06
178.54,7.33,4.33,7.32,4.32,-4.32,-4.48,-3.61,3.01,3.00,3.00
180.32,7.32,4.39,7.30,4.35,-4.35,-4.50,-3.65,2.97,2.95,2.94
182.13,7.29,4.40,7.28,4.39,-4.39,-4.52,-3.69,2.91,2.89,2.89
183.95,7.26,4.42,7.26,4.42,-4.42,-4.54,-3.73,2.84,2.84,2.84
185.79,7.23,4.46,7.23,4.45,-4.45,-4.56,-3.77,2.78,2.78,2.78
187.65,7.20,4.48,7.21,4.48,-4.48,-4.58,-3.82,2.73,2.73,2.73
189.52,7.17,4.49,7.18,4.50,-4.50,-4.59,-3.87,2.67,2.68,2.68
191.42,7.14,4.51,7.15,4.53,-4.53,-4.61,-3.92,2.62,2.63,2.63
193.33,7.12,4.54,7.13,4.55,-4.55,-4.62,-3.97,2.58,2.58,2.58
195.27,7.09,4.57,7.10,4.57,-4.57,-4.63,-4.03,2.53,2.53,2.53
197.22,7.07,4.60,7.07,4.59,-4.59,-4.64,-4.09,2.49,2.49,2.47
199.19,7.04,4.60,7.04,4.60,-4.60,-4.65,-4.15,2.44,2.44,2.44
201.18,7.01,4.63,7.02,4.62,-4.62,-4.66,-4.21,2.40,2.40,2.39
203.19,6.98,4.63,6.99,4.63,-4.63,-4.66,-4.27,2.35,2.36,2.36
205.23,6.96,4.64,6.97,4.65,-4.65,-4.67,-4.33,2.31,2.32,2.33
207.28,6.94,4.66,6.94,4.66,-4.66,-4.67,-4.40,2.28,2.28,2.29
209.35,6.92,4.68,6.92,4.67,-4.67,-4.67,-4.46,2.25,2.24,2.25
211.44,6.89,4.69,6.89,4.68,-4.68,-4.67,-4.53,2.21,2.21,2.21
213.56,6.86,4.68,6.86,4.69,-4.69,-4.67,-4.59,2.18,2.17,2.18
215.69,6.83,4.69,6.83,4.69,-4.69,-4.66,-4.66,2.14,2.14,2.15
217.85,6.80,4.69,6.80,4.69,-4.69,-4.66,-4.72,2.11,2.11,2.11
220.03,6.78,4.71,6.77,4.69,-4.69,-4.65,-4.78,2.09,2.08,2.08
222.23,6.75,4.71,6.75,4.70,-4.70,-4.64,-4.84,2.06,2.05,2.04
224.45,6.71,4.70,6.72,4.70,-4.70,-4.63,-4.89,2.02,2.02,2.02
226.70,6.67,4.69,6.69,4.69,-4.69,-4.62,-4.94,1.98,1.99,1.99
228.96,6.63,4.66,6.66,4.69,-4.69,-4.61,-4.99,1.95,1.97,1.97
231.25,6.61,4.67,6.62,4.68,-4.68,-4.59,-5.03,1.94,1.94,1.94
233.57,6.58,4.66,6.59,4.67,-4.67,-4.58,-5.07,1.92,1.92,1.92
235.90,6.55,4.65,6.56,4.65,-4.65,-4.56,-5.10,1.90,1.90,1.90
238.26,6.53,4.66,6.53,4.64,-4.64,-4.54,-5.13,1.89,1.89,1.88
240.64,6.51,4.64,6.50,4.62,-4.62,-4.52,-5.15,1.89,1.87,1.88
243.05,6.48,4.62,6.47,4.61,-4.61,-4.50,-5.16,1.88,1.86,1.86
245.48,6.44,4.60,6.44,4.59,-4.59,-4.48,-5.17,1.86,1.85,1.84
247.93,6.38,4.56,6.40,4.57,-4.57,-4.46,-5.17,1.82,1.84,1.83
250.41,6.35,4.52,6.37,4.54,-4.54,-4.43,-5.16,1.81,1.83,1.83
252.92,6.31,4.49,6.34,4.52,-4.52,-4.41,-5.14,1.80,1.82,1.83
255.45,6.29,4.48,6.30,4.49,-4.49,-4.38,-5.12,1.81,1.81,1.81
258.00,6.27,4.47,6.26,4.46,-4.46,-4.35,-5.09,1.82,1.81,1.81
260.58,6.24,4.44,6.22,4.43,-4.43,-4.32,-5.05,1.82,1.80,1.80
263.19,6.21,4.41,6.18,4.39,-4.39,-4.29,-5.01,1.82,1.79,1.80
265.82,6.15,4.37,6.14,4.36,-4.36,-4.26,-4.96,1.80,1.79,1.79
268.48,6.11,4.33,6.10,4.32,-4.32,-4.23,-4.90,1.79,1.78,1.79
271.16,6.06,4.28,6.06,4.29,-4.29,-4.19,-4.84,1.78,1.78,1.78
273.87,5.99,4.22,6.02,4.25,-4.25,-4.16,-4.77,1.75,1.77,1.77
276.61,5.96,4.19,5.98,4.21,-4.21,-4.12,-4.70,1.75,1.77,1.77
279.38,5.92,4.17,5.93,4.17,-4.17,-4.09,-4.62,1.76,1.76,1.75
282.17,5.88,4.13,5.89,4.13,-4.13,-4.05,-4.55,1.76,1.76,1.75
284.99,5.85,4.09,5.85,4.08,-4.08,-4.01,-4.46,1.77,1.76,1.76
287.84,5.80,4.04,5.80,4.04,-4.04,-3.97,-4.38,1.76,1.76,1.76
290.72,5.76,4.01,5.76,4.00,-4.00,-3.93,-4.29,1.76,1.76,1.75
293.63,5.72,3.96,5.73,3.97,-3.97,-3.89,-4.20,1.76,1.76,1.76
296.57,5.68,3.92,5.69,3.93,-3.93,-3.85,-4.11,1.76,1.76,1.76
299.53,5.64,3.88,5.66,3.89,-3.89,-3.81,-4.02,1.76,1.77,1.77
302.53,5.60,3.83,5.62,3.85,-3.85,-3.77,-3.93,1.75,1.77,1.78
305.55,5.57,3.80,5.59,3.81,-3.81,-3.73,-3.84,1.76,1.78,1.77
308.61,5.55,3.77,5.55,3.77,-3.77,-3.68,-3.75,1.79,1.78,1.78
311.69,5.52,3.74,5.51,3.73,-3.73,-3.64,-3.66,1.80,1.79,1.79
314.81,5.49,3.70,5.48,3.68,-3.68,-3.59,-3.57,1.81,1.79,1.79
317.96,5.45,3.66,5.44,3.64,-3.64,-3.55,-3.48,1.81,1.80,1.79
321.14,5.40,3.60,5.40,3.60,-3.60,-3.50,-3.40,1.80,1.80,1.81
324.35,5.36,3.56,5.37,3.56,-3.56,-3.46,-3.31,1.81,1.81,1.80
327.59,5.32,3.50,5.33,3.51,-3.51,-3.41,-3.23,1.81,1.82,1.83
330.87,5.28,3.46,5.28,3.46,-3.46,-3.36,-3.15,1.82,1.82,1.82
334.18,5.23,3.41,5.24,3.41,-3.41,-3.31,-3.07,1.82,1.83,1.82
337.52,5.19,3.36,5.19,3.36,-3.36,-3.27,-2.99,1.83,1.83,1.83
340.90,5.14,3.30,5.15,3.31,-3.31,-3.22,-2.91,1.84,1.84,1.84
344.30,5.10,3.25,5.10,3.25,-3.25,-3.17,-2.84,1.85,1.85,1.85
347.75,5.06,3.21,5.05,3.20,-3.20,-3.12,-2.77,1.87,1.85,1.86
351.23,5.00,3.15,5.00,3.14,-3.14,-3.07,-2.70,1.87,1.86,1.85
354.74,4.95,3.08,4.95,3.08,-3.08,-3.02,-2.63,1.87,1.87,1.88
358.28,4.88,3.01,4.90,3.02,-3.02,-2.97,-2.57,1.86,1.87,1.87
361.87,4.83,2.96,4.85,2.97,-2.97,-2.92,-2.50,1.87,1.88,1.88
365.49,4.78,2.90,4.80,2.91,-2.91,-2.87,-2.44,1.87,1.89,1.88
369.14,4.75,2.85,4.75,2.85,-2.85,-2.82,-2.38,1.90,1.90,1.90
372.83,4.70,2.80,4.70,2.79,-2.79,-2.77,-2.32,1.91,1.90,1.91
376.56,4.64,2.74,4.65,2.74,-2.74,-2.72,-2.27,1.91,1.91,1.90
380.33,4.59,2.68,4.59,2.68,-2.68,-2.67,-2.21,1.92,1.92,1.91
384.13,4.53,2.61,4.54,2.62,-2.62,-2.61,-2.16,1.92,1.93,1.93
387.97,4.48,2.55,4.49,2.56,-2.56,-2.56,-2.11,1.93,1.94,1.94
391.85,4.44,2.50,4.45,2.50,-2.50,-2.51,-2.06,1.94,1.94,1.94
395.77,4.40,2.46,4.40,2.44,-2.44,-2.46,-2.02,1.96,1.95,1.95
399.73,4.36,2.41,4.35,2.38,-2.38,-2.40,-1.97,1.98,1.96,1.96
403.72,4.30,2.32,4.30,2.32,-2.32,-2.35,-1.93,1.98,1.97,1.98
407.76,4.24,2.26,4.25,2.26,-2.26,-2.30,-1.88,1.98,1.98,1.98
411.84,4.18,2.20,4.20,2.21,-2.21,-2.24,-1.84,1.98,1.99,1.99
415.96,4.13,2.13,4.15,2.15,-2.15,-2.19,-1.80,1.99,2.00,2.01
420.12,4.09,2.09,4.10,2.09,-2.09,-2.14,-1.76,2.00,2.01,2.00
424.32,4.05,2.04,4.05,2.03,-2.03,-2.08,-1.72,2.02,2.02,2.01
428.56,4.00,1.97,4.00,1.97,-1.97,-2.03,-1.69,2.03,2.02,2.03
432.85,3.94,1.91,3.95,1.91,-1.91,-1.97,-1.65,2.03,2.03,2.04
437.18,3.88,1.85,3.89,1.85,-1.85,-1.92,-1.61,2.03,2.04,2.04
441.55,3.83,1.79,3.84,1.80,-1.80,-1.86,-1.58,2.04,2.05,2.05
445.96,3.80,1.75,3.80,1.74,-1.74,-1.81,-1.54,2.07,2.06,2.05
450.42,3.76,1.70,3.75,1.68,-1.68,-1.75,-1.50,2.08,2.07,2.06
454.93,3.70,1.63,3.70,1.62,-1.62,-1.70,-1.47,2.08,2.07,2.07
459.48,3.64,1.57,3.65,1.56,-1.56,-1.64,-1.43,2.08,2.08,2.08
464.07,3.58,1.49,3.60,1.51,-1.51,-1.59,-1.39,2.08,2.09,2.10
468.71,3.53,1.43,3.55,1.45,-1.45,-1.53,-1.36,2.09,2.10,2.11
473.40,3.49,1.38,3.50,1.39,-1.39,-1.47,-1.32,2.11,2.11,2.11
478.13,3.45,1.33,3.45,1.33,-1.33,-1.42,-1.28,2.13,2.12,2.12
482.91,3.40,1.27,3.40,1.27,-1.27,-1.36,-1.24,2.13,2.13,2.13
487.74,3.35,1.21,3.35,1.21,-1.21,-1.30,-1.20,2.15,2.14,2.14
492.62,3.30,1.16,3.30,1.15,-1.15,-1.24,-1.16,2.16,2.15,2.15
497.55,3.24,1.09,3.25,1.09,-1.09,-1.18,-1.12,2.16,2.16,2.16
502.52,3.18,1.02,3.20,1.03,-1.03,-1.13,-1.08,2.16,2.17,2.17
507.55,3.15,0.97,3.15,0.97,-0.97,-1.07,-1.04,2.19,2.19,2.19
512.62,3.11,0.92,3.10,0.90,-0.90,-1.01,-0.99,2.21,2.20,2.20
517.75,3.05,0.84,3.05,0.84,-0.84,-0.95,-0.95,2.21,2.21,2.21
522.93,2.99,0.77,2.99,0.77,-0.77,-0.89,-0.90,2.22,2.22,2.22
528.16,2.93,0.70,2.94,0.71,-0.71,-0.83,-0.85,2.23,2.23,2.23
