frequency,raw,error,smoothed,error_smoothed,equalization,parametric_eq,fixed_band_eq,equalized_raw,equalized_smoothed,target
20.00,1.38,-7.62,1.37,-7.63,7.63,7.24,2.71,9.01,9.00,9.00
20.20,1.40,-7.59,1.40,-7.60,7.60,7.22,2.79,9.00,8.99,8.99
20.40,1.42,-7.56,1.42,-7.56,7.56,7.19,2.87,8.98,8.98,8.98
20.61,1.44,-7.53,1.45,-7.52,7.52,7.17,2.95,8.96,8.97,8.97
20.81,1.47,-7.48,1.48,-7.48,7.48,7.15,3.04,8.95,8.95,8.95
21.02,1.50,-7.44,1.51,-7.44,7.44,7.12,3.13,8.94,8.94,8.94
21.23,1.53,-7.40,1.54,-7.39,7.39,7.10,3.22,8.92,8.93,8.93
21.44,1.57,-7.36,1.58,-7.35,7.35,7.07,3.31,8.92,8.92,8.94
21.66,1.61,-7.30,1.61,-7.30,7.30,7.05,3.41,8.91,8.91,8.92
21.87,1.65,-7.26,1.65,-7.25,7.25,7.02,3.51,8.90,8.91,8.91
22.09,1.69,-7.20,1.70,-7.20,7.20,7.00,3.61,8.89,8.90,8.89
22.31,1.73,-7.16,1.74,-7.15,7.15,6.97,3.72,8.88,8.89,8.89
22.54,1.79,-7.09,1.79,-7.10,7.10,6.94,3.83,8.89,8.88,8.88
22.76,1.84,-7.04,1.84,-7.04,7.04,6.91,3.94,8.88,8.88,8.88
22.99,1.90,-6.97,1.89,-6.98,6.98,6.89,4.05,8.88,8.87,8.87
23.22,1.94,-6.92,1.95,-6.92,6.92,6.86,4.17,8.86,8.87,8.86
23.45,2.00,-6.86,2.00,-6.86,6.86,6.83,4.29,8.86,8.86,8.87
23.69,2.05,-6.80,2.06,-6.80,6.80,6.80,4.41,8.85,8.86,8.86
23.92,2.10,-6.74,2.12,-6.74,6.74,6.77,4.54,8.84,8.85,8.84
24.16,2.17,-6.68,2.17,-6.67,6.67,6.74,4.66,8.85,8.85,8.85
24.40,2.23,-6.62,2.23,-6.61,6.61,6.71,4.79,8.84,8.85,8.85
24.65,2.30,-6.55,2.29,-6.55,6.55,6.68,4.92,8.85,8.84,8.85
24.89,2.36,-6.48,2.35,-6.49,6.49,6.64,5.06,8.85,8.84,8.85
25.14,2.41,-6.42,2.41,-6.43,6.43,6.61,5.19,8.84,8.84,8.84
25.39,2.47,-6.36,2.47,-6.36,6.36,6.58,5.33,8.84,8.84,8.83
25.65,2.52,-6.31,2.53,-6.30,6.30,6.54,5.46,8.82,8.84,8.83
25.91,2.58,-6.25,2.59,-6.24,6.24,6.51,5.60,8.82,8.83,8.83
26.16,2.64,-6.20,2.64,-6.19,6.19,6.48,5.74,8.83,8.83,8.84
26.43,2.70,-6.14,2.70,-6.14,6.14,6.44,5.87,8.84,8.83,8.84
26.69,2.75,-6.08,2.74,-6.09,6.09,6.41,6.01,8.84,8.83,8.83
26.96,2.80,-6.03,2.79,-6.05,6.05,6.37,6.14,8.85,8.83,8.83
27.23,2.84,-5.99,2.83,-6.01,6.01,6.34,6.27,8.85,8.83,8.83
27.50,2.88,-5.95,2.86,-5.97,5.97,6.30,6.40,8.85,8.83,8.83
27.77,2.92,-5.91,2.90,-5.94,5.94,6.26,6.52,8.86,8.84,8.83
28.05,2.94,-5.89,2.93,-5.90,5.90,6.22,6.64,8.84,8.84,8.83
28.33,2.96,-5.88,2.96,-5.87,5.87,6.19,6.75,8.83,8.84,8.84
28.62,2.98,-5.85,2.99,-5.84,5.84,6.15,6.86,8.83,8.84,8.84
28.90,2.99,-5.85,3.02,-5.82,5.82,6.11,6.96,8.81,8.84,8.84
29.19,3.03,-5.81,3.04,-5.79,5.79,6.07,7.05,8.82,8.83,8.84
29.48,3.06,-5.77,3.07,-5.76,5.76,6.03,7.13,8.82,8.83,8.84
29.78,3.09,-5.74,3.10,-5.73,5.73,5.99,7.20,8.82,8.83,8.83
30.08,3.12,-5.71,3.12,-5.70,5.70,5.95,7.26,8.82,8.83,8.83
30.38,3.15,-5.67,3.15,-5.67,5.67,5.91,7.30,8.82,8.82,8.82
30.68,3.17,-5.64,3.17,-5.64,5.64,5.87,7.34,8.81,8.82,8.81
30.99,3.19,-5.62,3.20,-5.61,5.61,5.83,7.36,8.80,8.81,8.81
31.30,3.22,-5.58,3.23,-5.58,5.58,5.79,7.37,8.80,8.80,8.80
31.61,3.25,-5.55,3.25,-5.54,5.54,5.75,7.37,8.79,8.79,8.80
31.93,3.28,-5.49,3.27,-5.51,5.51,5.70,7.35,8.79,8.79,8.78
32.24,3.31,-5.47,3.29,-5.49,5.49,5.66,7.32,8.80,8.78,8.78
32.57,3.33,-5.44,3.31,-5.46,5.46,5.62,7.28,8.79,8.77,8.77
32.89,3.34,-5.42,3.33,-5.44,5.44,5.57,7.23,8.78,8.76,8.76
33.22,3.35,-5.40,3.34,-5.41,5.41,5.53,7.17,8.76,8.76,8.76
33.55,3.36,-5.39,3.36,-5.39,5.39,5.48,7.10,8.75,8.75,8.75
33.89,3.37,-5.36,3.37,-5.36,5.36,5.44,7.02,8.74,8.74,8.74
34.23,3.38,-5.34,3.39,-5.34,5.34,5.39,6.93,8.72,8.73,8.72
34.57,3.39,-5.32,3.41,-5.31,5.31,5.35,6.83,8.70,8.72,8.71
34.92,3.41,-5.29,3.43,-5.28,5.28,5.30,6.73,8.69,8.71,8.70
35.27,3.42,-5.29,3.45,-5.25,5.25,5.26,6.62,8.67,8.70,8.71
35.62,3.45,-5.23,3.47,-5.21,5.21,5.21,6.51,8.67,8.68,8.68
35.97,3.48,-5.20,3.49,-5.18,5.18,5.16,6.39,8.66,8.67,8.68
36.33,3.51,-5.15,3.52,-5.13,5.13,5.12,6.27,8.65,8.65,8.66
36.70,3.54,-5.09,3.55,-5.09,5.09,5.07,6.15,8.63,8.63,8.63
37.06,3.57,-5.04,3.57,-5.04,5.04,5.02,6.03,8.62,8.62,8.62
37.43,3.60,-5.00,3.60,-5.00,5.00,4.97,5.90,8.60,8.60,8.60
37.81,3.63,-4.95,3.62,-4.96,4.96,4.92,5.78,8.59,8.58,8.58
38.19,3.66,-4.89,3.63,-4.92,4.92,4.88,5.66,8.58,8.55,8.55
38.57,3.68,-4.85,3.65,-4.88,4.88,4.83,5.53,8.56,8.53,8.53
38.95,3.69,-4.82,3.67,-4.84,4.84,4.78,5.41,8.53,8.51,8.51
39.34,3.70,-4.78,3.68,-4.80,4.80,4.73,5.29,8.51,8.48,8.48
39.74,3.70,-4.75,3.69,-4.77,4.77,4.68,5.18,8.47,8.46,8.45
40.14,3.70,-4.73,3.70,-4.73,4.73,4.63,5.06,8.44,8.43,8.43
40.54,3.69,-4.72,3.71,-4.70,4.70,4.58,4.95,8.39,8.41,8.41
40.94,3.69,-4.69,3.72,-4.66,4.66,4.53,4.84,8.35,8.38,8.38
41.35,3.70,-4.66,3.74,-4.62,4.62,4.48,4.73,8.33,8.36,8.36
41.76,3.72,-4.60,3.75,-4.58,4.58,4.42,4.63,8.31,8.33,8.33
42.18,3.75,-4.56,3.77,-4.54,4.54,4.37,4.52,8.29,8.31,8.31
42.60,3.78,-4.50,3.79,-4.49,4.49,4.32,4.43,8.27,8.28,8.28
43.03,3.80,-4.45,3.81,-4.44,4.44,4.27,4.33,8.24,8.25,8.26
43.46,3.84,-4.38,3.84,-4.39,4.39,4.22,4.24,8.23,8.23,8.22
43.90,3.87,-4.33,3.87,-4.33,4.33,4.16,4.15,8.20,8.20,8.20
44.33,3.90,-4.26,3.90,-4.27,4.27,4.11,4.06,8.17,8.17,8.16
44.78,3.93,-4.21,3.92,-4.21,4.21,4.06,3.98,8.14,8.13,8.14
45.23,3.95,-4.16,3.94,-4.15,4.15,4.00,3.90,8.11,8.10,8.11
45.68,3.98,-4.08,3.96,-4.10,4.10,3.95,3.82,8.08,8.06,8.06
46.13,4.00,-4.02,3.98,-4.04,4.04,3.90,3.75,8.05,8.02,8.03
46.60,4.02,-3.97,3.99,-3.99,3.99,3.84,3.68,8.01,7.99,7.99
47.06,4.03,-3.92,4.00,-3.94,3.94,3.79,3.61,7.97,7.94,7.95
47.53,4.03,-3.88,4.01,-3.89,3.89,3.73,3.55,7.92,7.90,7.91
48.01,4.02,-3.83,4.02,-3.84,3.84,3.68,3.48,7.86,7.86,7.85
48.49,4.01,-3.80,4.02,-3.79,3.79,3.62,3.42,7.80,7.81,7.81
48.97,4.00,-3.76,4.03,-3.74,3.74,3.57,3.37,7.74,7.76,7.76
49.46,4.01,-3.71,4.04,-3.68,3.68,3.51,3.31,7.69,7.72,7.72
49.96,4.02,-3.63,4.05,-3.62,3.62,3.46,3.26,7.65,7.67,7.65
50.46,4.04,-3.58,4.06,-3.56,3.56,3.40,3.21,7.61,7.62,7.62
50.96,4.06,-3.51,4.08,-3.50,3.50,3.35,3.16,7.56,7.58,7.58
51.47,4.08,-3.45,4.10,-3.43,3.43,3.29,3.11,7.52,7.53,7.53
51.99,4.11,-3.36,4.12,-3.36,3.36,3.23,3.07,7.48,7.48,7.48
52.51,4.14,-3.30,4.15,-3.29,3.29,3.18,3.03,7.43,7.44,7.44
53.03,4.17,-3.23,4.18,-3.21,3.21,3.12,2.98,7.38,7.39,7.40
53.56,4.21,-3.14,4.21,-3.14,3.14,3.06,2.94,7.35,7.34,7.35
54.10,4.24,-3.05,4.23,-3.06,3.06,3.01,2.90,7.30,7.30,7.29
54.64,4.27,-2.98,4.26,-2.99,2.99,2.95,2.86,7.26,7.25,7.25
55.18,4.29,-2.91,4.29,-2.92,2.92,2.89,2.82,7.21,7.21,7.20
55.74,4.32,-2.83,4.31,-2.86,2.86,2.83,2.78,7.18,7.16,7.15
56.29,4.34,-2.77,4.32,-2.80,2.80,2.78,2.74,7.14,7.12,7.11
56.86,4.35,-2.72,4.34,-2.74,2.74,2.72,2.71,7.09,7.07,7.07
57.42,4.36,-2.65,4.35,-2.68,2.68,2.66,2.67,7.04,7.02,7.01
58.00,4.37,-2.60,4.35,-2.62,2.62,2.60,2.63,6.99,6.98,6.97
58.58,4.36,-2.57,4.36,-2.57,2.57,2.54,2.59,6.93,6.92,6.93
59.16,4.35,-2.54,4.36,-2.51,2.51,2.48,2.54,6.86,6.87,6.89
59.76,4.35,-2.49,4.36,-2.46,2.46,2.43,2.50,6.81,6.82,6.84
60.35,4.34,-2.44,4.36,-2.41,2.41,2.37,2.46,6.75,6.76,6.78
60.96,4.34,-2.38,4.35,-2.35,2.35,2.31,2.41,6.69,6.71,6.72
61.57,4.34,-2.30,4.35,-2.30,2.30,2.25,2.36,6.64,6.65,6.64
62.18,4.34,-2.24,4.35,-2.24,2.24,2.19,2.31,6.58,6.59,6.58
62.80,4.34,-2.17,4.34,-2.18,2.18,2.13,2.26,6.52,6.53,6.51
63.43,4.34,-2.11,4.34,-2.12,2.12,2.07,2.21,6.46,6.46,6.45
64.07,4.34,-2.05,4.34,-2.06,2.06,2.01,2.16,6.40,6.40,6.39
64.71,4.34,-1.99,4.34,-2.00,2.00,1.95,2.10,6.34,6.34,6.33
65.35,4.34,-1.93,4.34,-1.93,1.93,1.89,2.05,6.27,6.27,6.27
66.01,4.34,-1.87,4.34,-1.87,1.87,1.83,1.99,6.21,6.21,6.21
66.67,4.34,-1.81,4.34,-1.80,1.80,1.77,1.93,6.15,6.14,6.15
67.33,4.34,-1.74,4.34,-1.74,1.74,1.71,1.86,6.08,6.08,6.08
68.01,4.34,-1.68,4.34,-1.68,1.68,1.65,1.80,6.02,6.02,6.02
68.69,4.34,-1.61,4.34,-1.61,1.61,1.59,1.73,5.95,5.95,5.96
69.37,4.34,-1.56,4.34,-1.55,1.55,1.53,1.67,5.89,5.89,5.90
70.07,4.34,-1.49,4.34,-1.48,1.48,1.47,1.60,5.82,5.82,5.83
70.77,4.34,-1.42,4.34,-1.41,1.41,1.41,1.53,5.75,5.75,5.76
71.48,4.34,-1.35,4.34,-1.35,1.35,1.35,1.46,5.69,5.69,5.69
72.19,4.34,-1.28,4.34,-1.28,1.28,1.29,1.39,5.62,5.62,5.62
72.91,4.34,-1.20,4.34,-1.21,1.21,1.22,1.32,5.55,5.55,5.55
73.64,4.34,-1.14,4.34,-1.15,1.15,1.16,1.25,5.49,5.49,5.48
74.38,4.34,-1.07,4.34,-1.08,1.08,1.10,1.17,5.42,5.42,5.41
75.12,4.34,-1.01,4.34,-1.02,1.02,1.04,1.10,5.36,5.36,5.35
75.87,4.34,-0.95,4.34,-0.95,0.95,0.98,1.03,5.29,5.29,5.29
76.63,4.34,-0.88,4.34,-0.89,0.89,0.92,0.95,5.23,5.23,5.22
77.40,4.34,-0.83,4.34,-0.82,0.82,0.85,0.88,5.17,5.17,5.17
78.17,4.34,-0.75,4.34,-0.76,0.76,0.79,0.80,5.10,5.10,5.09
78.95,4.34,-0.71,4.34,-0.70,0.70,0.73,0.73,5.04,5.04,5.05
79.74,4.34,-0.64,4.34,-0.64,0.64,0.67,0.65,4.98,4.98,4.98
80.54,4.34,-0.58,4.34,-0.58,0.58,0.61,0.58,4.92,4.92,4.93
81.35,4.34,-0.52,4.34,-0.52,0.52,0.54,0.50,4.86,4.86,4.86
82.16,4.34,-0.47,4.34,-0.46,0.46,0.48,0.43,4.80,4.80,4.81
82.98,4.34,-0.39,4.34,-0.39,0.39,0.42,0.35,4.73,4.73,4.74
83.81,4.34,-0.33,4.34,-0.33,0.33,0.36,0.28,4.67,4.67,4.67
84.65,4.34,-0.26,4.34,-0.26,0.26,0.29,0.20,4.61,4.61,4.60
85.50,4.34,-0.20,4.34,-0.20,0.20,0.23,0.13,4.54,4.54,4.54
86.35,4.34,-0.13,4.34,-0.13,0.13,0.17,0.05,4.47,4.47,4.47
87.22,4.34,-0.06,4.34,-0.07,0.07,0.11,-0.03,4.41,4.41,4.41
88.09,4.34,0.00,4.34,0.00,-0.00,0.04,-0.10,4.34,4.34,4.34
88.97,4.34,0.07,4.34,0.07,-0.07,-0.02,-0.18,4.27,4.27,4.27
89.86,4.34,0.14,4.34,0.14,-0.14,-0.08,-0.25,4.20,4.20,4.20
90.76,4.34,0.21,4.34,0.21,-0.21,-0.15,-0.33,4.13,4.13,4.13
91.66,4.34,0.29,4.34,0.28,-0.28,-0.21,-0.41,4.06,4.06,4.05
92.58,4.34,0.35,4.34,0.35,-0.35,-0.27,-0.48,3.99,3.99,3.99
93.51,4.34,0.42,4.34,0.43,-0.43,-0.34,-0.56,3.91,3.91,3.92
94.44,4.34,0.49,4.34,0.50,-0.50,-0.40,-0.64,3.84,3.84,3.85
95.39,4.34,0.57,4.34,0.57,-0.57,-0.47,-0.71,3.77,3.77,3.77
96.34,4.34,0.65,4.34,0.65,-0.65,-0.53,-0.79,3.69,3.69,3.69
97.30,4.34,0.72,4.34,0.72,-0.72,-0.59,-0.87,3.62,3.62,3.62
98.28,4.34,0.80,4.34,0.80,-0.80,-0.66,-0.95,3.55,3.55,3.54
99.26,4.34,0.88,4.34,0.87,-0.87,-0.72,-1.02,3.47,3.47,3.46
100.25,4.34,0.95,4.34,0.94,-0.94,-0.79,-1.10,3.40,3.40,3.39
101.25,4.34,1.02,4.34,1.01,-1.01,-0.85,-1.18,3.33,3.33,3.32
102.27,4.34,1.08,4.34,1.08,-1.08,-0.91,-1.25,3.26,3.26,3.26
103.29,4.34,1.16,4.34,1.15,-1.15,-0.98,-1.33,3.19,3.19,3.18
104.32,4.34,1.22,4.34,1.22,-1.22,-1.04,-1.41,3.12,3.12,3.12
105.37,4.34,1.29,4.34,1.29,-1.29,-1.11,-1.48,3.05,3.05,3.05
106.42,4.34,1.36,4.34,1.36,-1.36,-1.17,-1.56,2.98,2.98,2.99
107.48,4.34,1.43,4.34,1.43,-1.43,-1.23,-1.63,2.91,2.91,2.91
108.56,4.34,1.50,4.35,1.51,-1.51,-1.30,-1.70,2.83,2.84,2.85
109.64,4.34,1.56,4.35,1.58,-1.58,-1.36,-1.77,2.76,2.77,2.78
110.74,4.34,1.64,4.35,1.65,-1.65,-1.43,-1.84,2.69,2.70,2.71
111.85,4.34,1.71,4.36,1.73,-1.73,-1.49,-1.91,2.61,2.63,2.63
112.97,4.35,1.79,4.36,1.80,-1.80,-1.56,-1.98,2.55,2.56,2.57
114.10,4.36,1.87,4.36,1.87,-1.87,-1.62,-2.04,2.49,2.49,2.49
115.24,4.36,1.95,4.35,1.94,-1.94,-1.68,-2.11,2.42,2.42,2.41
116.39,4.36,2.03,4.35,2.00,-2.00,-1.75,-2.17,2.36,2.35,2.34
117.55,4.36,2.10,4.34,2.07,-2.07,-1.81,-2.23,2.30,2.27,2.26
118.73,4.34,2.15,4.33,2.12,-2.12,-1.88,-2.28,2.22,2.21,2.19
119.92,4.33,2.20,4.31,2.18,-2.18,-1.94,-2.34,2.15,2.14,2.13
121.12,4.31,2.24,4.30,2.23,-2.23,-2.00,-2.39,2.08,2.07,2.07
122.33,4.28,2.28,4.27,2.28,-2.28,-2.07,-2.43,2.00,2.00,2.00
123.55,4.25,2.31,4.25,2.32,-2.32,-2.13,-2.48,1.93,1.93,1.94
124.79,4.22,2.35,4.22,2.36,-2.36,-2.20,-2.52,1.86,1.86,1.87
126.03,4.19,2.39,4.19,2.40,-2.40,-2.26,-2.56,1.79,1.79,1.80
127.29,4.16,2.43,4.16,2.44,-2.44,-2.32,-2.60,1.73,1.73,1.74
128.57,4.13,2.47,4.13,2.47,-2.47,-2.39,-2.63,1.66,1.66,1.66
129.85,4.10,2.51,4.11,2.51,-2.51,-2.45,-2.67,1.59,1.59,1.59
131.15,4.08,2.56,4.08,2.56,-2.56,-2.51,-2.69,1.52,1.52,1.52
132.46,4.05,2.60,4.06,2.60,-2.60,-2.57,-2.72,1.45,1.46,1.46
133.79,4.03,2.65,4.05,2.66,-2.66,-2.64,-2.75,1.38,1.39,1.38
135.12,4.01,2.69,4.03,2.71,-2.71,-2.70,-2.77,1.30,1.32,1.32
136.48,4.00,2.74,4.03,2.77,-2.77,-2.76,-2.79,1.23,1.26,1.26
137.84,4.00,2.81,4.02,2.83,-2.83,-2.82,-2.81,1.17,1.19,1.19
139.22,4.00,2.88,4.02,2.89,-2.89,-2.88,-2.83,1.11,1.13,1.13
140.61,4.01,2.94,4.02,2.95,-2.95,-2.95,-2.85,1.06,1.07,1.07
142.02,4.02,3.02,4.02,3.01,-3.01,-3.01,-2.87,1.01,1.01,1.00
143.44,4.03,3.08,4.02,3.07,-3.07,-3.07,-2.89,0.96,0.95,0.95
144.87,4.04,3.14,4.02,3.13,-3.13,-3.13,-2.90,0.92,0.89,0.90
146.32,4.04,3.21,4.02,3.18,-3.18,-3.19,-2.92,0.86,0.84,0.84
147.78,4.03,3.25,4.01,3.23,-3.23,-3.25,-2.94,0.80,0.78,0.78
149.26,4.02,3.30,4.00,3.28,-3.28,-3.31,-2.96,0.74,0.73,0.73
150.75,4.01,3.34,3.99,3.32,-3.32,-3.37,-2.98,0.69,0.67,0.67
152.26,3.98,3.36,3.97,3.36,-3.36,-3.42,-3.00,0.62,0.62,0.62
153.78,3.96,3.40,3.95,3.39,-3.39,-3.48,-3.02,0.57,0.56,0.57
155.32,3.93,3.42,3.93,3.42,-3.42,-3.54,-3.04,0.51,0.51,0.51
156.88,3.90,3.44,3.90,3.45,-3.45,-3.60,-3.07,0.45,0.45,0.46
158.44,3.87,3.47,3.87,3.47,-3.47,-3.65,-3.09,0.40,0.40,0.40
160.03,3.84,3.49,3.84,3.50,-3.50,-3.71,-3.12,0.34,0.34,0.35
161.63,3.81,3.52,3.81,3.53,-3.53,-3.76,-3.15,0.29,0.29,0.29
163.24,3.78,3.55,3.79,3.56,-3.56,-3.82,-3.18,0.23,0.23,0.23
164.88,3.75,3.58,3.76,3.59,-3.59,-3.87,-3.22,0.16,0.17,0.17
166.53,3.73,3.62,3.74,3.62,-3.62,-3.92,-3.26,0.11,0.12,0.11
168.19,3.71,3.65,3.72,3.66,-3.66,-3.97,-3.30,0.05,0.06,0.07
169.87,3.69,3.69,3.71,3.71,-3.71,-4.03,-3.34,-0.01,0.00,0.00
171.57,3.68,3.74,3.70,3.75,-3.75,-4.08,-3.38,-0.07,-0.05,-0.06
173.29,3.67,3.78,3.69,3.80,-3.80,-4.13,-3.43,-0.13,-0.11,-0.11
175.02,3.67,3.84,3.68,3.85,-3.85,-4.18,-3.48,-0.18,-0.17,-0.17
176.77,3.68,3.90,3.68,3.90,-3.90,-4.22,-3.53,-0.22,-0.22,-0.22
178.54,3.69,3.97,3.68,3.96,-3.96,-4.27,-3.59,-0.27,-0.28,-0.28
180.32,3.69,4.04,3.67,4.01,-4.01,-4.32,-3.65,-0.32,-0.33,-0.34
182.13,3.69,4.08,3.67,4.06,-4.06,-4.36,-3.71,-0.37,-0.39,-0.39
183.95,3.69,4.13,3.67,4.12,-4.12,-4.41,-3.78,-0.43,-0.45,-0.44
185.79,3.69,4.19,3.67,4.17,-4.17,-4.45,-3.84,-0.48,-0.50,-0.50
187.65,3.69,4.24,3.67,4.23,-4.23,-4.49,-3.91,-0.53,-0.55,-0.55
189.52,3.68,4.28,3.68,4.28,-4.28,-4.53,-3.98,-0.60,-0.60,-0.60
191.42,3.67,4.32,3.68,4.33,-4.33,-4.57,-4.06,-0.66,-0.65,-0.65
193.33,3.67,4.37,3.69,4.39,-4.39,-4.61,-4.14,-0.72,-0.70,-0.70
195.27,3.67,4.42,3.69,4.44,-4.44,-4.65,-4.22,-0.77,-0.75,-0.75
197.22,3.68,4.49,3.70,4.50,-4.50,-4.69,-4.30,-0.82,-0.79,-0.81
199.19,3.70,4.54,3.72,4.55,-4.55,-4.72,-4.38,-0.85,-0.84,-0.84
201.18,3.72,4.61,3.73,4.61,-4.61,-4.76,-4.46,-0.89,-0.88,-0.89
203.19,3.75,4.68,3.75,4.68,-4.68,-4.79,-4.55,-0.92,-0.92,-0.92
205.23,3.77,4.73,3.78,4.74,-4.74,-4.82,-4.64,-0.97,-0.96,-0.96
207.28,3.80,4.80,3.80,4.80,-4.80,-4.85,-4.72,-1.00,-1.00,-1.00
209.35,3.83,4.87,3.83,4.87,-4.87,-4.88,-4.81,-1.04,-1.04,-1.03
211.44,3.87,4.94,3.87,4.94,-4.94,-4.91,-4.90,-1.07,-1.07,-1.07
213.56,3.90,5.00,3.90,5.00,-5.00,-4.93,-4.99,-1.10,-1.11,-1.10
215.69,3.93,5.07,3.93,5.07,-5.07,-4.96,-5.07,-1.13,-1.14,-1.14
217.85,3.95,5.12,3.95,5.13,-5.13,-4.98,-5.16,-1.17,-1.17,-1.17
220.03,3.98,5.19,3.98,5.18,-5.18,-5.00,-5.24,-1.20,-1.20,-1.21
222.23,4.00,5.24,4.00,5.23,-5.23,-5.02,-5.32,-1.23,-1.23,-1.24
224.45,4.02,5.28,4.02,5.28,-5.28,-5.04,-5.39,-1.26,-1.26,-1.26
226.70,4.04,5.34,4.03,5.32,-5.32,-5.06,-5.47,-1.28,-1.29,-1.29
228.96,4.05,5.36,4.04,5.35,-5.35,-5.07,-5.53,-1.30,-1.31,-1.31
231.25,4.06,5.40,4.04,5.38,-5.38,-5.09,-5.60,-1.32,-1.34,-1.34
233.57,4.05,5.41,4.04,5.40,-5.40,-5.10,-5.65,-1.35,-1.36,-1.36
235.90,4.04,5.42,4.04,5.41,-5.41,-5.11,-5.70,-1.37,-1.38,-1.38
238.26,4.03,5.44,4.03,5.42,-5.42,-5.12,-5.75,-1.39,-1.39,-1.40
240.64,4.02,5.42,4.02,5.42,-5.42,-5.13,-5.79,-1.40,-1.41,-1.40
243.05,4.00,5.42,4.00,5.42,-5.42,-5.14,-5.82,-1.42,-1.42,-1.42
245.48,3.98,5.42,3.98,5.41,-5.41,-5.14,-5.84,-1.43,-1.43,-1.44
247.93,3.95,5.41,3.96,5.40,-5.40,-5.15,-5.85,-1.45,-1.44,-1.45
250.41,3.92,5.37,3.93,5.39,-5.39,-5.15,-5.86,-1.47,-1.45,-1.45
252.92,3.90,5.36,3.91,5.37,-5.37,-5.15,-5.86,-1.47,-1.46,-1.45
255.45,3.87,5.34,3.88,5.35,-5.35,-5.15,-5.85,-1.47,-1.47,-1.47
258.00,3.85,5.32,3.85,5.32,-5.32,-5.15,-5.83,-1.47,-1.48,-1.47
260.58,3.82,5.30,3.81,5.29,-5.29,-5.14,-5.80,-1.47,-1.48,-1.48
263.19,3.79,5.27,3.78,5.27,-5.27,-5.14,-5.77,-1.48,-1.49,-1.48
265.82,3.76,5.25,3.75,5.24,-5.24,-5.13,-5.73,-1.48,-1.49,-1.49
268.48,3.72,5.22,3.72,5.22,-5.22,-5.12,-5.68,-1.49,-1.50,-1.50
271.16,3.68,5.18,3.68,5.19,-5.19,-5.11,-5.63,-1.51,-1.50,-1.50
273.87,3.64,5.15,3.65,5.16,-5.16,-5.10,-5.57,-1.52,-1.51,-1.51
276.61,3.60,5.11,3.62,5.14,-5.14,-5.09,-5.51,-1.54,-1.51,-1.51
279.38,3.57,5.10,3.59,5.11,-5.11,-5.07,-5.44,-1.54,-1.52,-1.53
282.17,3.55,5.08,3.56,5.08,-5.08,-5.06,-5.37,-1.53,-1.52,-1.53
284.99,3.52,5.04,3.53,5.05,-5.05,-5.04,-5.30,-1.53,-1.52,-1.52
287.84,3.51,5.03,3.50,5.02,-5.02,-5.03,-5.22,-1.51,-1.52,-1.52
290.72,3.49,5.02,3.47,4.99,-4.99,-5.01,-5.15,-1.50,-1.52,-1.53
293.63,3.46,4.98,3.44,4.96,-4.96,-4.99,-5.07,-1.50,-1.52,-1.52
296.57,3.43,4.95,3.42,4.93,-4.93,-4.97,-4.99,-1.50,-1.52,-1.52
299.53,3.40,4.92,3.39,4.90,-4.90,-4.94,-4.91,-1.50,-1.51,-1.51
302.53,3.36,4.86,3.36,4.87,-4.87,-4.92,-4.83,-1.51,-1.51,-1.50
305.55,3.33,4.84,3.34,4.84,-4.84,-4.89,-4.75,-1.51,-1.51,-1.51
308.61,3.29,4.79,3.31,4.81,-4.81,-4.87,-4.67,-1.52,-1.50,-1.50
311.69,3.26,4.75,3.28,4.78,-4.78,-4.84,-4.59,-1.52,-1.49,-1.49
314.81,3.24,4.73,3.26,4.74,-4.74,-4.81,-4.52,-1.50,-1.49,-1.49
317.96,3.22,4.71,3.23,4.71,-4.71,-4.79,-4.44,-1.49,-1.48,-1.49
321.14,3.20,4.67,3.20,4.67,-4.67,-4.76,-4.37,-1.47,-1.48,-1.47
324.35,3.18,4.66,3.16,4.64,-4.64,-4.73,-4.30,-1.45,-1.47,-1.48
327.59,3.15,4.61,3.14,4.60,-4.60,-4.69,-4.23,-1.45,-1.47,-1.45
330.87,3.12,4.58,3.11,4.57,-4.57,-4.66,-4.17,-1.44,-1.46,-1.46
334.18,3.09,4.55,3.08,4.53,-4.53,-4.63,-4.10,-1.44,-1.45,-1.46
337.52,3.06,4.51,3.05,4.50,-4.50,-4.59,-4.04,-1.44,-1.45,-1.45
340.90,3.02,4.46,3.03,4.47,-4.47,-4.56,-3.99,-1.44,-1.44,-1.44
344.30,2.98,4.41,3.00,4.43,-4.43,-4.52,-3.93,-1.45,-1.43,-1.43
347.75,2.95,4.38,2.97,4.40,-4.40,-4.49,-3.88,-1.45,-1.43,-1.43
351.23,2.92,4.35,2.94,4.36,-4.36,-4.45,-3.83,-1.44,-1.42,-1.43
354.74,2.90,4.31,2.92,4.33,-4.33,-4.41,-3.79,-1.43,-1.41,-1.40
358.28,2.88,4.29,2.89,4.29,-4.29,-4.38,-3.74,-1.41,-1.41,-1.41
361.87,2.87,4.27,2.86,4.26,-4.26,-4.34,-3.71,-1.39,-1.40,-1.40
365.49,2.85,4.25,2.83,4.22,-4.22,-4.30,-3.67,-1.37,-1.39,-1.40
369.14,2.82,4.20,2.80,4.19,-4.19,-4.26,-3.64,-1.37,-1.39,-1.38
372.83,2.79,4.16,2.77,4.15,-4.15,-4.22,-3.60,-1.36,-1.38,-1.37
376.56,2.75,4.13,2.75,4.12,-4.12,-4.18,-3.58,-1.37,-1.37,-1.38
380.33,2.72,4.09,2.72,4.09,-4.09,-4.14,-3.55,-1.36,-1.36,-1.37
384.13,2.68,4.03,2.70,4.05,-4.05,-4.10,-3.53,-1.37,-1.35,-1.35
387.97,2.65,4.00,2.67,4.02,-4.02,-4.06,-3.51,-1.36,-1.35,-1.35
391.85,2.62,3.96,2.64,3.98,-3.98,-4.02,-3.49,-1.36,-1.34,-1.34
395.77,2.59,3.92,2.61,3.94,-3.94,-3.98,-3.47,-1.35,-1.33,-1.33
399.73,2.58,3.91,2.58,3.90,-3.90,-3.93,-3.46,-1.31,-1.32,-1.32
403.72,2.56,3.86,2.55,3.85,-3.85,-3.89,-3.45,-1.29,-1.31,-1.30
407.76,2.54,3.84,2.51,3.81,-3.81,-3.85,-3.44,-1.27,-1.30,-1.30
411.84,2.50,3.79,2.48,3.77,-3.77,-3.81,-3.43,-1.27,-1.29,-1.29
415.96,2.47,3.75,2.45,3.73,-3.73,-3.76,-3.42,-1.26,-1.28,-1.27
420.12,2.42,3.70,2.42,3.69,-3.69,-3.72,-3.42,-1.27,-1.27,-1.28
424.32,2.38,3.65,2.39,3.65,-3.65,-3.68,-3.41,-1.27,-1.26,-1.27
428.56,2.34,3.59,2.36,3.61,-3.61,-3.63,-3.41,-1.27,-1.26,-1.25
432.85,2.30,3.54,2.32,3.57,-3.57,-3.59,-3.41,-1.27,-1.25,-1.24
437.18,2.26,3.51,2.29,3.53,-3.53,-3.55,-3.40,-1.27,-1.24,-1.24
441.55,2.23,3.47,2.26,3.49,-3.49,-3.50,-3.40,-1.26,-1.23,-1.24
445.96,2.22,3.45,2.23,3.45,-3.45,-3.46,-3.40,-1.23,-1.22,-1.23
450.42,2.20,3.42,2.20,3.41,-3.41,-3.42,-3.39,-1.21,-1.22,-1.22
454.93,2.19,3.40,2.17,3.37,-3.37,-3.37,-3.39,-1.18,-1.21,-1.21
459.48,2.16,3.36,2.14,3.34,-3.34,-3.33,-3.38,-1.17,-1.20,-1.20
464.07,2.13,3.32,2.11,3.30,-3.30,-3.29,-3.37,-1.17,-1.19,-1.18
468.71,2.09,3.27,2.08,3.26,-3.26,-3.24,-3.36,-1.17,-1.18,-1.18
473.40,2.05,3.22,2.05,3.22,-3.22,-3.20,-3.35,-1.17,-1.17,-1.17
478.13,2.02,3.18,2.03,3.19,-3.19,-3.16,-3.34,-1.17,-1.16,-1.16
482.91,1.99,3.14,2.00,3.15,-3.15,-3.12,-3.32,-1.16,-1.15,-1.15
487.74,1.96,3.10,1.97,3.11,-3.11,-3.07,-3.31,-1.15,-1.14,-1.14
492.62,1.93,3.06,1.94,3.07,-3.07,-3.03,-3.29,-1.14,-1.13,-1.13
497.55,1.91,3.03,1.91,3.03,-3.03,-2.99,-3.26,-1.12,-1.12,-1.12
502.52,1.89,3.01,1.89,3.00,-3.00,-2.95,-3.24,-1.10,-1.11,-1.11
507.55,1.86,2.96,1.86,2.96,-2.96,-2.90,-3.21,-1.10,-1.10,-1.09
512.62,1.83,2.92,1.84,2.92,-2.92,-2.86,-3.18,-1.09,-1.08,-1.09
517.75,1.81,2.88,1.82,2.89,-2.89,-2.82,-3.15,-1.08,-1.07,-1.07
522.93,1.80,2.86,1.80,2.86,-2.86,-2.78,-3.11,-1.06,-1.06,-1.06
528.16,1.78,2.83,1.78,2.83,-2.83,-2.74,-3.07,-1.05,-1.05,-1.05
