frequency,raw,error,smoothed,error_smoothed,equalization,parametric_eq,fixed_band_eq,equalized_raw,equalized_smoothed,target
20.00,-13.00,-15.03,-13.02,-15.08,15.08,14.12,5.51,2.08,2.05,2.03
20.20,-12.93,-14.96,-12.94,-14.98,14.98,14.19,5.65,2.05,2.05,2.03
20.40,-12.86,-14.89,-12.85,-14.89,14.89,14.25,5.79,2.03,2.04,2.03
20.61,-12.77,-14.80,-12.76,-14.79,14.79,14.30,5.93,2.02,2.03,2.03
20.81,-12.68,-14.71,-12.68,-14.69,14.69,14.33,6.08,2.01,2.02,2.03
21.02,-12.60,-14.63,-12.59,-14.60,14.60,14.34,6.23,2.00,2.01,2.03
21.23,-12.51,-14.52,-12.50,-14.50,14.50,14.34,6.38,1.99,2.00,2.01
21.44,-12.42,-14.42,-12.42,-14.40,14.40,14.32,6.54,1.98,1.98,2.00
21.66,-12.34,-14.32,-12.33,-14.30,14.30,14.29,6.71,1.96,1.97,1.98
21.87,-12.25,-14.21,-12.25,-14.20,14.20,14.25,6.88,1.95,1.95,1.96
22.09,-12.16,-14.11,-12.16,-14.10,14.10,14.19,7.05,1.94,1.94,1.95
22.31,-12.07,-13.99,-12.08,-14.00,14.00,14.12,7.23,1.93,1.92,1.92
22.54,-11.99,-13.89,-11.99,-13.89,13.89,14.04,7.41,1.90,1.90,1.90
22.76,-11.90,-13.78,-11.91,-13.78,13.78,13.95,7.59,1.88,1.88,1.88
22.99,-11.82,-13.67,-11.82,-13.68,13.68,13.85,7.79,1.86,1.85,1.85
23.22,-11.74,-13.56,-11.74,-13.57,13.57,13.74,7.98,1.83,1.83,1.82
23.45,-11.65,-13.44,-11.66,-13.47,13.47,13.63,8.18,1.82,1.81,1.79
23.69,-11.58,-13.36,-11.58,-13.37,13.37,13.51,8.39,1.78,1.79,1.78
23.92,-11.49,-13.25,-11.49,-13.26,13.26,13.38,8.60,1.77,1.77,1.76
24.16,-11.41,-13.16,-11.41,-13.16,13.16,13.26,8.82,1.75,1.75,1.75
24.40,-11.34,-13.07,-11.33,-13.06,13.06,13.12,9.04,1.72,1.73,1.73
24.65,-11.25,-12.96,-11.24,-12.95,12.95,12.99,9.27,1.70,1.71,1.71
24.89,-11.17,-12.86,-11.16,-12.85,12.85,12.85,9.50,1.68,1.69,1.69
25.14,-11.08,-12.76,-11.07,-12.75,12.75,12.72,9.74,1.67,1.67,1.68
25.39,-10.99,-12.65,-10.98,-12.64,12.64,12.58,9.98,1.65,1.66,1.66
25.65,-10.90,-12.55,-10.90,-12.54,12.54,12.45,10.23,1.64,1.64,1.65
25.91,-10.81,-12.43,-10.81,-12.44,12.44,12.31,10.47,1.62,1.63,1.62
26.16,-10.71,-12.32,-10.72,-12.33,12.33,12.18,10.73,1.62,1.61,1.61
26.43,-10.62,-12.22,-10.63,-12.22,12.22,12.05,10.98,1.60,1.60,1.60
26.69,-10.53,-12.10,-10.54,-12.12,12.12,11.92,11.24,1.59,1.58,1.57
26.96,-10.44,-12.00,-10.45,-12.01,12.01,11.79,11.49,1.57,1.56,1.56
27.23,-10.35,-11.90,-10.35,-11.90,11.90,11.66,11.75,1.55,1.55,1.55
27.50,-10.27,-11.81,-10.26,-11.80,11.80,11.54,12.00,1.53,1.53,1.54
27.77,-10.18,-11.70,-10.17,-11.69,11.69,11.42,12.25,1.52,1.52,1.52
28.05,-10.08,-11.59,-10.08,-11.59,11.59,11.31,12.50,1.51,1.51,1.51
28.33,-10.00,-11.49,-9.99,-11.48,11.48,11.20,12.74,1.49,1.49,1.49
28.62,-9.90,-11.38,-9.90,-11.38,11.38,11.09,12.96,1.48,1.48,1.48
28.90,-9.82,-11.28,-9.81,-11.28,11.28,10.98,13.17,1.46,1.47,1.46
29.19,-9.73,-11.17,-9.72,-11.18,11.18,10.88,13.37,1.45,1.45,1.44
29.48,-9.63,-11.07,-9.64,-11.08,11.08,10.78,13.55,1.45,1.44,1.44
29.78,-9.54,-10.97,-9.55,-10.98,10.98,10.69,13.70,1.44,1.43,1.43
30.08,-9.45,-10.87,-9.46,-10.88,10.88,10.59,13.83,1.42,1.41,1.42
30.38,-9.38,-10.78,-9.38,-10.78,10.78,10.51,13.94,1.40,1.40,1.40
30.68,-9.29,-10.68,-9.30,-10.68,10.68,10.42,14.01,1.39,1.38,1.39
30.99,-9.20,-10.56,-9.22,-10.58,10.58,10.34,14.05,1.38,1.37,1.36
31.30,-9.13,-10.48,-9.14,-10.49,10.49,10.26,14.06,1.35,1.35,1.35
31.61,-9.06,-10.40,-9.06,-10.39,10.39,10.18,14.04,1.33,1.33,1.34
31.93,-8.98,-10.30,-8.98,-10.29,10.29,10.11,13.98,1.31,1.32,1.32
32.24,-8.91,-10.20,-8.90,-10.20,10.20,10.03,13.90,1.29,1.30,1.29
32.57,-8.83,-10.10,-8.82,-10.10,10.10,9.96,13.79,1.27,1.28,1.27
32.89,-8.76,-10.02,-8.75,-10.01,10.01,9.89,13.65,1.25,1.26,1.26
33.22,-8.67,-9.90,-8.67,-9.91,9.91,9.83,13.49,1.24,1.24,1.23
33.55,-8.60,-9.82,-8.60,-9.81,9.81,9.76,13.30,1.22,1.21,1.22
33.89,-8.53,-9.72,-8.53,-9.72,9.72,9.70,13.11,1.19,1.19,1.19
34.23,-8.45,-9.62,-8.45,-9.63,9.63,9.63,12.89,1.18,1.17,1.17
34.57,-8.37,-9.52,-8.38,-9.53,9.53,9.57,12.67,1.16,1.15,1.15
34.92,-8.30,-9.43,-8.30,-9.44,9.44,9.51,12.44,1.14,1.13,1.13
35.27,-8.23,-9.34,-8.23,-9.34,9.34,9.44,12.20,1.11,1.11,1.11
35.62,-8.16,-9.25,-8.16,-9.25,9.25,9.38,11.95,1.09,1.09,1.09
35.97,-8.09,-9.16,-8.09,-9.16,9.16,9.32,11.71,1.07,1.07,1.07
36.33,-8.02,-9.07,-8.02,-9.07,9.07,9.25,11.46,1.05,1.05,1.05
36.70,-7.95,-8.98,-7.95,-8.98,8.98,9.18,11.22,1.03,1.03,1.03
37.06,-7.88,-8.89,-7.88,-8.89,8.89,9.11,10.97,1.01,1.01,1.01
37.43,-7.81,-8.80,-7.81,-8.80,8.80,9.04,10.73,0.99,0.99,0.99
37.81,-7.74,-8.71,-7.74,-8.71,8.71,8.96,10.49,0.97,0.97,0.97
38.19,-7.67,-8.61,-7.67,-8.62,8.62,8.89,10.26,0.95,0.95,0.94
38.57,-7.61,-8.54,-7.60,-8.53,8.53,8.80,10.03,0.92,0.93,0.93
38.95,-7.53,-8.43,-7.54,-8.44,8.44,8.72,9.80,0.91,0.91,0.90
39.34,-7.47,-8.35,-7.47,-8.36,8.36,8.63,9.58,0.89,0.89,0.88
39.74,-7.40,-8.26,-7.40,-8.27,8.27,8.54,9.36,0.87,0.87,0.86
40.14,-7.33,-8.18,-7.33,-8.18,8.18,8.45,9.15,0.85,0.85,0.85
40.54,-7.27,-8.10,-7.27,-8.10,8.10,8.35,8.95,0.83,0.83,0.83
40.94,-7.20,-8.01,-7.20,-8.01,8.01,8.25,8.75,0.81,0.81,0.81
41.35,-7.13,-7.91,-7.13,-7.92,7.92,8.15,8.55,0.80,0.79,0.78
41.76,-7.06,-7.84,-7.06,-7.84,7.84,8.04,8.36,0.78,0.77,0.78
42.18,-6.99,-7.75,-6.99,-7.75,7.75,7.93,8.18,0.76,0.76,0.76
42.60,-6.93,-7.67,-6.92,-7.66,7.66,7.81,8.00,0.73,0.74,0.74
43.03,-6.86,-7.59,-6.85,-7.57,7.57,7.70,7.83,0.71,0.72,0.73
43.46,-6.79,-7.49,-6.78,-7.48,7.48,7.58,7.66,0.69,0.70,0.70
43.90,-6.71,-7.39,-6.71,-7.39,7.39,7.46,7.49,0.68,0.68,0.68
44.33,-6.63,-7.29,-6.64,-7.30,7.30,7.33,7.34,0.67,0.66,0.66
44.78,-6.57,-7.21,-6.56,-7.21,7.21,7.21,7.18,0.64,0.64,0.64
45.23,-6.49,-7.10,-6.49,-7.11,7.11,7.08,7.03,0.62,0.63,0.61
45.68,-6.41,-7.00,-6.41,-7.02,7.02,6.96,6.89,0.61,0.61,0.59
46.13,-6.33,-6.91,-6.34,-6.92,6.92,6.83,6.75,0.59,0.59,0.58
46.60,-6.26,-6.83,-6.26,-6.83,6.83,6.70,6.61,0.57,0.56,0.57
47.06,-6.18,-6.73,-6.19,-6.73,6.73,6.57,6.48,0.55,0.54,0.55
47.53,-6.11,-6.64,-6.11,-6.63,6.63,6.44,6.36,0.52,0.52,0.53
48.01,-6.03,-6.55,-6.03,-6.54,6.54,6.31,6.23,0.51,0.50,0.52
48.49,-5.96,-6.45,-5.96,-6.44,6.44,6.18,6.11,0.48,0.48,0.49
48.97,-5.88,-6.34,-5.88,-6.34,6.34,6.06,6.00,0.47,0.46,0.46
49.46,-5.81,-6.24,-5.81,-6.25,6.25,5.93,5.89,0.44,0.44,0.43
49.96,-5.74,-6.14,-5.73,-6.15,6.15,5.80,5.78,0.41,0.42,0.40
50.46,-5.66,-6.05,-5.66,-6.05,6.05,5.68,5.67,0.39,0.39,0.39
50.96,-5.58,-5.95,-5.58,-5.95,5.95,5.55,5.57,0.37,0.37,0.37
51.47,-5.51,-5.85,-5.51,-5.85,5.85,5.43,5.47,0.34,0.35,0.34
51.99,-5.43,-5.75,-5.43,-5.75,5.75,5.31,5.38,0.32,0.32,0.32
52.51,-5.36,-5.66,-5.35,-5.65,5.65,5.19,5.28,0.29,0.30,0.30
53.03,-5.28,-5.56,-5.28,-5.55,5.55,5.07,5.19,0.27,0.27,0.28
53.56,-5.20,-5.45,-5.20,-5.45,5.45,4.96,5.10,0.25,0.25,0.25
54.10,-5.12,-5.35,-5.13,-5.35,5.35,4.85,5.01,0.23,0.23,0.23
54.64,-5.05,-5.25,-5.05,-5.25,5.25,4.73,4.93,0.20,0.20,0.20
55.18,-4.97,-5.15,-4.97,-5.15,5.15,4.62,4.84,0.18,0.18,0.18
55.74,-4.90,-5.05,-4.90,-5.05,5.05,4.52,4.76,0.15,0.16,0.15
56.29,-4.83,-4.96,-4.82,-4.96,4.96,4.41,4.68,0.13,0.13,0.13
56.86,-4.75,-4.85,-4.75,-4.86,4.86,4.31,4.60,0.11,0.11,0.10
57.42,-4.67,-4.75,-4.68,-4.76,4.76,4.21,4.52,0.09,0.08,0.08
58.00,-4.60,-4.66,-4.60,-4.66,4.66,4.11,4.44,0.06,0.06,0.06
58.58,-4.53,-4.56,-4.53,-4.56,4.56,4.01,4.36,0.03,0.03,0.03
59.16,-4.46,-4.47,-4.46,-4.47,4.47,3.91,4.29,0.01,0.01,0.01
59.76,-4.39,-4.38,-4.39,-4.37,4.37,3.82,4.21,-0.02,-0.02,-0.01
60.35,-4.32,-4.28,-4.32,-4.28,4.28,3.73,4.13,-0.04,-0.05,-0.04
60.96,-4.26,-4.20,-4.25,-4.18,4.18,3.64,4.06,-0.08,-0.07,-0.06
61.57,-4.19,-4.09,-4.19,-4.09,4.09,3.55,3.98,-0.10,-0.10,-0.10
62.18,-4.12,-3.99,-4.12,-3.99,3.99,3.46,3.90,-0.13,-0.13,-0.13
62.80,-4.05,-3.89,-4.05,-3.90,3.90,3.38,3.82,-0.15,-0.15,-0.16
63.43,-3.99,-3.80,-3.99,-3.81,3.81,3.30,3.74,-0.18,-0.18,-0.19
64.07,-3.93,-3.71,-3.93,-3.72,3.72,3.22,3.67,-0.21,-0.21,-0.22
64.71,-3.87,-3.63,-3.87,-3.64,3.64,3.14,3.59,-0.23,-0.23,-0.24
65.35,-3.81,-3.55,-3.81,-3.55,3.55,3.06,3.51,-0.26,-0.26,-0.26
66.01,-3.75,-3.47,-3.75,-3.47,3.47,2.98,3.43,-0.28,-0.28,-0.28
66.67,-3.69,-3.38,-3.69,-3.38,3.38,2.91,3.35,-0.31,-0.31,-0.31
67.33,-3.63,-3.30,-3.64,-3.30,3.30,2.84,3.27,-0.33,-0.33,-0.33
68.01,-3.58,-3.22,-3.58,-3.22,3.22,2.77,3.19,-0.36,-0.36,-0.36
68.69,-3.53,-3.15,-3.53,-3.15,3.15,2.70,3.10,-0.38,-0.38,-0.38
69.37,-3.48,-3.07,-3.48,-3.07,3.07,2.63,3.02,-0.41,-0.41,-0.41
70.07,-3.43,-2.99,-3.43,-2.99,2.99,2.56,2.94,-0.44,-0.44,-0.44
70.77,-3.38,-2.92,-3.38,-2.92,2.92,2.50,2.86,-0.46,-0.46,-0.46
71.48,-3.33,-2.84,-3.33,-2.84,2.84,2.43,2.78,-0.49,-0.49,-0.49
72.19,-3.29,-2.77,-3.29,-2.76,2.76,2.37,2.70,-0.53,-0.52,-0.52
72.91,-3.24,-2.68,-3.24,-2.69,2.69,2.31,2.61,-0.55,-0.56,-0.56
73.64,-3.20,-2.61,-3.20,-2.61,2.61,2.25,2.53,-0.59,-0.59,-0.59
74.38,-3.16,-2.54,-3.16,-2.53,2.53,2.19,2.45,-0.63,-0.62,-0.62
75.12,-3.12,-2.45,-3.12,-2.46,2.46,2.13,2.37,-0.66,-0.66,-0.67
75.87,-3.08,-2.38,-3.08,-2.38,2.38,2.07,2.29,-0.70,-0.70,-0.70
76.63,-3.04,-2.31,-3.04,-2.31,2.31,2.01,2.21,-0.73,-0.73,-0.73
77.40,-3.01,-2.24,-3.00,-2.23,2.23,1.96,2.13,-0.78,-0.77,-0.77
78.17,-2.97,-2.14,-2.97,-2.15,2.15,1.90,2.05,-0.82,-0.81,-0.83
78.95,-2.93,-2.08,-2.93,-2.08,2.08,1.85,1.97,-0.85,-0.85,-0.85
79.74,-2.90,-2.01,-2.90,-2.00,2.00,1.79,1.89,-0.90,-0.90,-0.89
80.54,-2.87,-1.93,-2.87,-1.93,1.93,1.74,1.82,-0.94,-0.94,-0.94
81.35,-2.83,-1.85,-2.84,-1.85,1.85,1.69,1.74,-0.98,-0.98,-0.98
82.16,-2.80,-1.77,-2.81,-1.78,1.78,1.64,1.66,-1.02,-1.03,-1.03
82.98,-2.78,-1.71,-2.78,-1.71,1.71,1.59,1.59,-1.07,-1.07,-1.07
83.81,-2.75,-1.62,-2.75,-1.63,1.63,1.54,1.51,-1.12,-1.12,-1.13
84.65,-2.73,-1.56,-2.73,-1.56,1.56,1.49,1.43,-1.17,-1.17,-1.17
85.50,-2.70,-1.49,-2.70,-1.49,1.49,1.44,1.36,-1.21,-1.21,-1.21
86.35,-2.68,-1.42,-2.68,-1.42,1.42,1.39,1.29,-1.26,-1.26,-1.26
87.22,-2.67,-1.36,-2.66,-1.35,1.35,1.34,1.21,-1.32,-1.31,-1.31
88.09,-2.64,-1.27,-2.65,-1.28,1.28,1.29,1.14,-1.36,-1.36,-1.37
88.97,-2.63,-1.22,-2.63,-1.22,1.22,1.24,1.07,-1.41,-1.41,-1.41
89.86,-2.62,-1.16,-2.61,-1.15,1.15,1.19,0.99,-1.47,-1.46,-1.46
90.76,-2.60,-1.08,-2.60,-1.09,1.09,1.15,0.92,-1.51,-1.51,-1.52
91.66,-2.59,-1.02,-2.59,-1.02,1.02,1.10,0.85,-1.57,-1.57,-1.57
92.58,-2.58,-0.95,-2.58,-0.96,0.96,1.05,0.78,-1.62,-1.62,-1.63
93.51,-2.57,-0.90,-2.57,-0.89,0.89,1.00,0.71,-1.68,-1.67,-1.67
94.44,-2.56,-0.84,-2.56,-0.83,0.83,0.95,0.64,-1.73,-1.73,-1.72
95.39,-2.55,-0.77,-2.55,-0.77,0.77,0.90,0.57,-1.78,-1.79,-1.78
96.34,-2.55,-0.70,-2.55,-0.71,0.71,0.86,0.50,-1.84,-1.84,-1.85
97.30,-2.55,-0.65,-2.55,-0.64,0.64,0.81,0.43,-1.91,-1.90,-1.90
98.28,-2.54,-0.58,-2.54,-0.58,0.58,0.76,0.36,-1.96,-1.96,-1.96
99.26,-2.54,-0.51,-2.54,-0.52,0.52,0.71,0.29,-2.02,-2.02,-2.03
100.25,-2.54,-0.46,-2.54,-0.46,0.46,0.66,0.23,-2.08,-2.08,-2.08
101.25,-2.55,-0.41,-2.55,-0.40,0.40,0.60,0.16,-2.15,-2.14,-2.14
102.27,-2.55,-0.34,-2.55,-0.34,0.34,0.55,0.10,-2.21,-2.21,-2.21
103.29,-2.55,-0.27,-2.56,-0.29,0.29,0.50,0.03,-2.26,-2.27,-2.28
104.32,-2.56,-0.23,-2.56,-0.23,0.23,0.44,-0.03,-2.33,-2.33,-2.33
105.37,-2.57,-0.18,-2.57,-0.17,0.17,0.39,-0.09,-2.40,-2.40,-2.39
106.42,-2.58,-0.12,-2.58,-0.12,0.12,0.33,-0.15,-2.46,-2.46,-2.46
107.48,-2.59,-0.06,-2.59,-0.06,0.06,0.28,-0.21,-2.53,-2.53,-2.53
108.56,-2.60,-0.00,-2.60,-0.00,0.00,0.22,-0.27,-2.60,-2.59,-2.60
109.64,-2.61,0.05,-2.61,0.05,-0.05,0.16,-0.32,-2.66,-2.66,-2.66
110.74,-2.62,0.10,-2.62,0.11,-0.11,0.10,-0.38,-2.73,-2.73,-2.72
111.85,-2.63,0.16,-2.63,0.16,-0.16,0.04,-0.43,-2.79,-2.80,-2.79
112.97,-2.65,0.22,-2.65,0.22,-0.22,-0.03,-0.48,-2.87,-2.86,-2.87
114.10,-2.67,0.26,-2.66,0.27,-0.27,-0.09,-0.52,-2.94,-2.93,-2.93
115.24,-2.67,0.33,-2.68,0.32,-0.32,-0.15,-0.56,-2.99,-3.00,-3.00
116.39,-2.69,0.38,-2.70,0.37,-0.37,-0.22,-0.60,-3.06,-3.06,-3.07
117.55,-2.71,0.43,-2.71,0.42,-0.42,-0.28,-0.64,-3.13,-3.13,-3.14
118.73,-2.73,0.47,-2.73,0.46,-0.46,-0.35,-0.67,-3.19,-3.19,-3.20
119.92,-2.75,0.51,-2.76,0.50,-0.50,-0.41,-0.70,-3.25,-3.26,-3.26
121.12,-2.78,0.54,-2.78,0.54,-0.54,-0.47,-0.73,-3.32,-3.32,-3.32
122.33,-2.80,0.59,-2.80,0.58,-0.58,-0.54,-0.75,-3.38,-3.38,-3.39
123.55,-2.83,0.61,-2.83,0.62,-0.62,-0.60,-0.77,-3.45,-3.44,-3.44
124.79,-2.86,0.64,-2.85,0.65,-0.65,-0.65,-0.79,-3.51,-3.50,-3.50
126.03,-2.89,0.66,-2.88,0.68,-0.68,-0.71,-0.80,-3.57,-3.56,-3.55
127.29,-2.91,0.70,-2.91,0.71,-0.71,-0.76,-0.81,-3.62,-3.62,-3.61
128.57,-2.94,0.74,-2.94,0.73,-0.73,-0.81,-0.81,-3.67,-3.67,-3.68
129.85,-2.97,0.76,-2.97,0.76,-0.76,-0.85,-0.82,-3.73,-3.73,-3.73
131.15,-3.00,0.78,-3.00,0.78,-0.78,-0.89,-0.81,-3.78,-3.78,-3.78
132.46,-3.03,0.81,-3.03,0.80,-0.80,-0.92,-0.81,-3.83,-3.83,-3.84
133.79,-3.06,0.82,-3.07,0.81,-0.81,-0.94,-0.80,-3.87,-3.88,-3.88
135.12,-3.10,0.84,-3.10,0.83,-0.83,-0.96,-0.79,-3.93,-3.93,-3.94
136.48,-3.14,0.83,-3.13,0.83,-0.83,-0.97,-0.77,-3.97,-3.97,-3.97
137.84,-3.17,0.84,-3.17,0.84,-0.84,-0.97,-0.75,-4.01,-4.01,-4.01
139.22,-3.21,0.85,-3.21,0.84,-0.84,-0.97,-0.73,-4.05,-4.05,-4.06
140.61,-3.25,0.85,-3.24,0.84,-0.84,-0.96,-0.71,-4.09,-4.09,-4.10
142.02,-3.28,0.84,-3.28,0.84,-0.84,-0.94,-0.68,-4.12,-4.12,-4.12
143.44,-3.33,0.82,-3.32,0.83,-0.83,-0.92,-0.66,-4.16,-4.16,-4.15
144.87,-3.37,0.82,-3.37,0.82,-0.82,-0.89,-0.63,-4.19,-4.19,-4.19
146.32,-3.40,0.82,-3.41,0.81,-0.81,-0.86,-0.60,-4.21,-4.22,-4.22
147.78,-3.45,0.79,-3.45,0.79,-0.79,-0.83,-0.56,-4.24,-4.25,-4.24
149.26,-3.49,0.78,-3.50,0.78,-0.78,-0.80,-0.53,-4.27,-4.28,-4.27
150.75,-3.55,0.76,-3.54,0.76,-0.76,-0.76,-0.50,-4.31,-4.30,-4.31
152.26,-3.59,0.74,-3.59,0.74,-0.74,-0.72,-0.46,-4.33,-4.33,-4.33
153.78,-3.64,0.72,-3.64,0.72,-0.72,-0.68,-0.42,-4.36,-4.36,-4.36
155.32,-3.69,0.69,-3.69,0.69,-0.69,-0.64,-0.39,-4.38,-4.38,-4.38
156.88,-3.75,0.66,-3.75,0.66,-0.66,-0.59,-0.35,-4.41,-4.41,-4.41
158.44,-3.81,0.63,-3.80,0.64,-0.64,-0.55,-0.31,-4.45,-4.44,-4.44
160.03,-3.86,0.61,-3.86,0.61,-0.61,-0.51,-0.27,-4.47,-4.47,-4.47
161.63,-3.92,0.58,-3.92,0.57,-0.57,-0.47,-0.23,-4.49,-4.49,-4.50
163.24,-3.98,0.55,-3.98,0.54,-0.54,-0.43,-0.19,-4.52,-4.52,-4.53
164.88,-4.04,0.51,-4.04,0.51,-0.51,-0.39,-0.15,-4.55,-4.55,-4.55
166.53,-4.10,0.47,-4.11,0.47,-0.47,-0.35,-0.11,-4.57,-4.58,-4.57
168.19,-4.17,0.44,-4.17,0.43,-0.43,-0.31,-0.07,-4.60,-4.61,-4.61
169.87,-4.24,0.40,-4.24,0.40,-0.40,-0.28,-0.03,-4.64,-4.64,-4.64
171.57,-4.31,0.36,-4.31,0.36,-0.36,-0.24,0.01,-4.67,-4.67,-4.67
173.29,-4.38,0.31,-4.38,0.32,-0.32,-0.21,0.05,-4.70,-4.70,-4.69
175.02,-4.45,0.28,-4.46,0.28,-0.28,-0.17,0.09,-4.73,-4.74,-4.73
176.77,-4.53,0.24,-4.53,0.24,-0.24,-0.14,0.13,-4.77,-4.77,-4.77
178.54,-4.60,0.21,-4.60,0.20,-0.20,-0.11,0.17,-4.80,-4.80,-4.81
180.32,-4.68,0.16,-4.68,0.16,-0.16,-0.08,0.21,-4.84,-4.84,-4.84
182.13,-4.75,0.12,-4.75,0.12,-0.12,-0.05,0.25,-4.87,-4.87,-4.87
183.95,-4.83,0.08,-4.82,0.09,-0.09,-0.01,0.30,-4.92,-4.91,-4.91
185.79,-4.90,0.05,-4.89,0.05,-0.05,0.02,0.34,-4.95,-4.94,-4.95
187.65,-4.97,0.02,-4.96,0.01,-0.01,0.05,0.38,-4.98,-4.98,-4.99
189.52,-5.04,-0.02,-5.03,-0.03,0.03,0.08,0.42,-5.01,-5.01,-5.02
191.42,-5.10,-0.06,-5.10,-0.06,0.06,0.11,0.46,-5.04,-5.04,-5.04
193.33,-5.17,-0.11,-5.17,-0.10,0.10,0.14,0.50,-5.07,-5.07,-5.06
195.27,-5.23,-0.14,-5.24,-0.14,0.14,0.17,0.54,-5.09,-5.10,-5.09
197.22,-5.30,-0.18,-5.30,-0.17,0.17,0.20,0.58,-5.13,-5.13,-5.12
199.19,-5.36,-0.19,-5.36,-0.21,0.21,0.23,0.62,-5.15,-5.15,-5.17
201.18,-5.42,-0.24,-5.43,-0.25,0.25,0.26,0.65,-5.17,-5.18,-5.18
203.19,-5.49,-0.29,-5.49,-0.29,0.29,0.29,0.69,-5.20,-5.20,-5.20
205.23,-5.55,-0.33,-5.54,-0.32,0.32,0.33,0.73,-5.23,-5.22,-5.22
207.28,-5.60,-0.37,-5.60,-0.36,0.36,0.36,0.77,-5.24,-5.24,-5.23
209.35,-5.66,-0.40,-5.66,-0.40,0.40,0.39,0.80,-5.26,-5.26,-5.26
211.44,-5.71,-0.43,-5.71,-0.44,0.44,0.43,0.83,-5.27,-5.28,-5.28
213.56,-5.77,-0.47,-5.77,-0.48,0.48,0.46,0.87,-5.29,-5.29,-5.30
215.69,-5.82,-0.52,-5.82,-0.51,0.51,0.50,0.90,-5.31,-5.31,-5.30
217.85,-5.88,-0.57,-5.87,-0.55,0.55,0.54,0.93,-5.33,-5.32,-5.31
220.03,-5.92,-0.58,-5.92,-0.59,0.59,0.58,0.96,-5.33,-5.33,-5.34
222.23,-5.96,-0.61,-5.97,-0.63,0.63,0.62,0.98,-5.33,-5.34,-5.35
224.45,-6.01,-0.67,-6.01,-0.67,0.67,0.66,1.01,-5.34,-5.34,-5.34
226.70,-6.05,-0.70,-6.05,-0.71,0.71,0.70,1.03,-5.34,-5.34,-5.35
228.96,-6.09,-0.74,-6.09,-0.75,0.75,0.74,1.05,-5.34,-5.34,-5.35
231.25,-6.13,-0.79,-6.13,-0.79,0.79,0.78,1.06,-5.34,-5.34,-5.34
233.57,-6.17,-0.84,-6.17,-0.83,0.83,0.82,1.08,-5.34,-5.34,-5.33
235.90,-6.20,-0.87,-6.20,-0.87,0.87,0.86,1.09,-5.33,-5.33,-5.33
238.26,-6.22,-0.89,-6.23,-0.91,0.91,0.90,1.10,-5.31,-5.32,-5.33
240.64,-6.25,-0.94,-6.25,-0.95,0.95,0.94,1.10,-5.30,-5.31,-5.31
243.05,-6.27,-0.98,-6.27,-0.98,0.98,0.98,1.10,-5.29,-5.29,-5.29
245.48,-6.30,-1.03,-6.29,-1.02,1.02,1.01,1.10,-5.28,-5.27,-5.27
247.93,-6.31,-1.05,-6.31,-1.05,1.05,1.04,1.09,-5.26,-5.26,-5.26
250.41,-6.31,-1.06,-6.32,-1.08,1.08,1.07,1.08,-5.23,-5.24,-5.25
252.92,-6.32,-1.11,-6.32,-1.11,1.11,1.10,1.07,-5.21,-5.22,-5.21
255.45,-6.33,-1.14,-6.32,-1.13,1.13,1.12,1.05,-5.20,-5.20,-5.19
258.00,-6.32,-1.15,-6.32,-1.15,1.15,1.13,1.03,-5.17,-5.17,-5.17
260.58,-6.31,-1.16,-6.31,-1.16,1.16,1.14,1.00,-5.15,-5.15,-5.15
263.19,-6.30,-1.17,-6.30,-1.17,1.17,1.15,0.97,-5.13,-5.13,-5.13
265.82,-6.28,-1.17,-6.28,-1.17,1.17,1.15,0.94,-5.11,-5.10,-5.11
268.48,-6.25,-1.17,-6.25,-1.17,1.17,1.14,0.91,-5.08,-5.08,-5.08
271.16,-6.21,-1.16,-6.22,-1.16,1.16,1.13,0.87,-5.05,-5.06,-5.05
273.87,-6.18,-1.15,-6.18,-1.15,1.15,1.11,0.83,-5.03,-5.03,-5.03
276.61,-6.14,-1.14,-6.14,-1.13,1.13,1.08,0.78,-5.01,-5.01,-5.00
279.38,-6.08,-1.10,-6.09,-1.11,1.11,1.05,0.73,-4.97,-4.98,-4.98
282.17,-6.03,-1.07,-6.03,-1.07,1.07,1.01,0.68,-4.96,-4.96,-4.96
284.99,-5.97,-1.04,-5.96,-1.03,1.03,0.96,0.63,-4.94,-4.93,-4.93
287.84,-5.89,-0.98,-5.88,-0.98,0.98,0.91,0.58,-4.91,-4.90,-4.91
290.72,-5.81,-0.94,-5.80,-0.93,0.93,0.86,0.52,-4.88,-4.87,-4.87
293.63,-5.72,-0.87,-5.70,-0.86,0.86,0.80,0.46,-4.86,-4.84,-4.85
296.57,-5.62,-0.80,-5.60,-0.79,0.79,0.74,0.41,-4.83,-4.81,-4.82
299.53,-5.52,-0.73,-5.49,-0.70,0.70,0.68,0.34,-4.82,-4.78,-4.79
302.53,-5.40,-0.63,-5.37,-0.62,0.62,0.61,0.28,-4.78,-4.75,-4.77
305.55,-5.27,-0.55,-5.24,-0.52,0.52,0.55,0.22,-4.75,-4.72,-4.72
308.61,-5.13,-0.44,-5.11,-0.43,0.43,0.48,0.15,-4.70,-4.69,-4.69
311.69,-4.99,-0.34,-4.98,-0.33,0.33,0.41,0.09,-4.66,-4.66,-4.65
314.81,-4.84,-0.22,-4.85,-0.23,0.23,0.34,0.02,-4.61,-4.63,-4.62
317.96,-4.71,-0.12,-4.72,-0.13,0.13,0.27,-0.05,-4.58,-4.59,-4.59
321.14,-4.57,-0.01,-4.60,-0.04,0.04,0.20,-0.12,-4.53,-4.56,-4.56
324.35,-4.45,0.09,-4.48,0.06,-0.06,0.13,-0.19,-4.51,-4.53,-4.54
327.59,-4.33,0.17,-4.36,0.14,-0.14,0.06,-0.26,-4.47,-4.50,-4.50
330.87,-4.23,0.24,-4.26,0.22,-0.22,-0.01,-0.33,-4.45,-4.48,-4.47
334.18,-4.14,0.31,-4.16,0.29,-0.29,-0.08,-0.40,-4.43,-4.45,-4.45
337.52,-4.06,0.37,-4.08,0.35,-0.35,-0.14,-0.47,-4.41,-4.42,-4.43
340.90,-3.99,0.41,-4.00,0.40,-0.40,-0.21,-0.55,-4.39,-4.40,-4.40
344.30,-3.93,0.45,-3.94,0.44,-0.44,-0.27,-0.62,-4.37,-4.38,-4.38
347.75,-3.87,0.48,-3.88,0.48,-0.48,-0.34,-0.69,-4.35,-4.36,-4.35
351.23,-3.80,0.53,-3.83,0.51,-0.51,-0.40,-0.77,-4.31,-4.34,-4.33
354.74,-3.76,0.56,-3.78,0.54,-0.54,-0.47,-0.84,-4.30,-4.32,-4.32
358.28,-3.74,0.56,-3.74,0.56,-0.56,-0.53,-0.92,-4.30,-4.30,-4.30
361.87,-3.70,0.58,-3.70,0.58,-0.58,-0.59,-1.00,-4.28,-4.28,-4.28
365.49,-3.67,0.58,-3.65,0.60,-0.60,-0.65,-1.08,-4.27,-4.26,-4.25
369.14,-3.63,0.61,-3.61,0.63,-0.63,-0.71,-1.15,-4.26,-4.24,-4.24
372.83,-3.58,0.65,-3.56,0.66,-0.66,-0.78,-1.23,-4.24,-4.22,-4.23
376.56,-3.52,0.69,-3.51,0.69,-0.69,-0.84,-1.31,-4.21,-4.20,-4.21
380.33,-3.47,0.71,-3.46,0.72,-0.72,-0.90,-1.39,-4.19,-4.18,-4.18
384.13,-3.40,0.76,-3.39,0.77,-0.77,-0.96,-1.47,-4.17,-4.16,-4.16
387.97,-3.33,0.81,-3.32,0.81,-0.81,-1.02,-1.55,-4.14,-4.14,-4.14
391.85,-3.25,0.87,-3.25,0.87,-0.87,-1.09,-1.63,-4.12,-4.12,-4.12
395.77,-3.17,0.92,-3.16,0.94,-0.94,-1.15,-1.71,-4.11,-4.10,-4.09
399.73,-3.07,1.00,-3.07,1.01,-1.01,-1.21,-1.79,-4.08,-4.08,-4.07
403.72,-2.97,1.09,-2.96,1.09,-1.09,-1.28,-1.88,-4.06,-4.05,-4.06
407.76,-2.86,1.18,-2.85,1.19,-1.19,-1.34,-1.96,-4.05,-4.03,-4.04
411.84,-2.75,1.26,-2.73,1.28,-1.28,-1.41,-2.04,-4.03,-4.01,-4.01
415.96,-2.61,1.38,-2.60,1.39,-1.39,-1.48,-2.12,-4.00,-3.99,-3.99
420.12,-2.48,1.49,-2.46,1.50,-1.50,-1.55,-2.19,-3.98,-3.97,-3.97
424.32,-2.34,1.60,-2.32,1.62,-1.62,-1.63,-2.27,-3.96,-3.94,-3.94
428.56,-2.19,1.73,-2.18,1.74,-1.74,-1.70,-2.35,-3.93,-3.92,-3.92
432.85,-2.04,1.86,-2.03,1.87,-1.87,-1.78,-2.42,-3.91,-3.90,-3.90
437.18,-1.88,1.99,-1.88,1.99,-1.99,-1.87,-2.50,-3.87,-3.87,-3.87
441.55,-1.71,2.13,-1.73,2.11,-2.11,-1.95,-2.57,-3.82,-3.85,-3.84
