frequency,raw,error,smoothed,error_smoothed,equalization,parametric_eq,fixed_band_eq,equalized_raw,equalized_smoothed,target
20.00,-5.57,-8.97,-5.57,-9.00,9.00,8.62,3.33,3.43,3.42,3.40
20.20,-5.56,-8.99,-5.55,-9.00,9.00,8.64,3.42,3.44,3.44,3.43
20.40,-5.47,-8.93,-5.53,-8.99,8.99,8.66,3.51,3.52,3.46,3.46
20.61,-5.41,-8.89,-5.49,-8.98,8.98,8.68,3.61,3.56,3.48,3.48
20.81,-5.33,-8.84,-5.46,-8.96,8.96,8.68,3.71,3.63,3.50,3.51
21.02,-5.34,-8.88,-5.42,-8.93,8.93,8.69,3.82,3.59,3.52,3.54
21.23,-5.41,-8.96,-5.37,-8.90,8.90,8.69,3.92,3.49,3.53,3.55
21.44,-5.44,-9.00,-5.32,-8.86,8.86,8.69,4.03,3.42,3.54,3.56
21.66,-5.42,-8.99,-5.27,-8.82,8.82,8.68,4.14,3.40,3.55,3.57
21.87,-5.37,-8.94,-5.21,-8.77,8.77,8.67,4.26,3.40,3.56,3.57
22.09,-5.30,-8.88,-5.14,-8.71,8.71,8.65,4.38,3.41,3.57,3.58
22.31,-5.19,-8.77,-5.07,-8.65,8.65,8.63,4.50,3.46,3.57,3.58
22.54,-5.05,-8.63,-4.98,-8.56,8.56,8.60,4.63,3.50,3.58,3.58
22.76,-4.91,-8.49,-4.89,-8.46,8.46,8.57,4.76,3.55,3.58,3.57
22.99,-4.74,-8.31,-4.79,-8.36,8.36,8.54,4.89,3.62,3.57,3.56
23.22,-4.60,-8.17,-4.69,-8.26,8.26,8.51,5.02,3.66,3.57,3.56
23.45,-4.49,-8.05,-4.59,-8.16,8.16,8.47,5.16,3.67,3.57,3.56
23.69,-4.38,-7.95,-4.50,-8.07,8.07,8.43,5.30,3.68,3.57,3.56
23.92,-4.32,-7.88,-4.42,-7.98,7.98,8.38,5.44,3.66,3.57,3.56
24.16,-4.26,-7.83,-4.35,-7.91,7.91,8.33,5.59,3.65,3.56,3.57
24.40,-4.23,-7.80,-4.29,-7.86,7.86,8.28,5.74,3.62,3.56,3.57
24.65,-4.23,-7.79,-4.25,-7.81,7.81,8.23,5.89,3.58,3.56,3.56
24.89,-4.23,-7.79,-4.22,-7.77,7.77,8.17,6.05,3.54,3.56,3.56
25.14,-4.23,-7.79,-4.19,-7.75,7.75,8.12,6.20,3.51,3.56,3.56
25.39,-4.23,-7.79,-4.17,-7.72,7.72,8.06,6.36,3.49,3.55,3.55
25.65,-4.23,-7.79,-4.15,-7.70,7.70,8.00,6.52,3.47,3.55,3.55
25.91,-4.18,-7.73,-4.12,-7.67,7.67,7.93,6.68,3.49,3.55,3.54
26.16,-4.13,-7.67,-4.10,-7.64,7.64,7.87,6.84,3.51,3.55,3.54
26.43,-4.07,-7.61,-4.07,-7.61,7.61,7.80,7.00,3.53,3.54,3.54
26.69,-4.02,-7.56,-4.03,-7.57,7.57,7.74,7.16,3.55,3.54,3.54
26.96,-3.98,-7.52,-3.99,-7.52,7.52,7.67,7.31,3.54,3.53,3.54
27.23,-3.91,-7.45,-3.94,-7.47,7.47,7.60,7.47,3.56,3.53,3.54
27.50,-3.84,-7.38,-3.88,-7.41,7.41,7.53,7.62,3.57,3.53,3.53
27.77,-3.80,-7.32,-3.83,-7.35,7.35,7.47,7.76,3.55,3.52,3.52
28.05,-3.74,-7.26,-3.76,-7.28,7.28,7.40,7.90,3.54,3.52,3.52
28.33,-3.70,-7.21,-3.70,-7.21,7.21,7.33,8.04,3.51,3.52,3.51
28.62,-3.65,-7.16,-3.63,-7.14,7.14,7.26,8.17,3.48,3.51,3.51
28.90,-3.60,-7.11,-3.55,-7.06,7.06,7.19,8.28,3.46,3.51,3.51
29.19,-3.52,-7.02,-3.47,-6.97,6.97,7.12,8.39,3.45,3.50,3.50
29.48,-3.45,-6.95,-3.39,-6.89,6.89,7.05,8.49,3.43,3.50,3.50
29.78,-3.35,-6.84,-3.31,-6.80,6.80,6.98,8.58,3.45,3.49,3.49
30.08,-3.28,-6.77,-3.23,-6.72,6.72,6.92,8.65,3.43,3.48,3.49
30.38,-3.17,-6.65,-3.17,-6.65,6.65,6.85,8.71,3.47,3.48,3.48
30.68,-3.09,-6.57,-3.11,-6.59,6.59,6.78,8.75,3.49,3.47,3.47
30.99,-3.01,-6.48,-3.08,-6.54,6.54,6.72,8.78,3.53,3.47,3.46
31.30,-2.93,-6.39,-3.05,-6.51,6.51,6.66,8.80,3.58,3.46,3.46
31.61,-2.90,-6.36,-3.04,-6.50,6.50,6.59,8.80,3.59,3.45,3.46
31.93,-2.88,-6.33,-3.04,-6.49,6.49,6.53,8.78,3.61,3.45,3.45
32.24,-2.92,-6.36,-3.05,-6.49,6.49,6.47,8.75,3.57,3.44,3.43
32.57,-2.98,-6.41,-3.06,-6.49,6.49,6.41,8.71,3.51,3.43,3.43
32.89,-3.08,-6.51,-3.07,-6.49,6.49,6.35,8.65,3.41,3.42,3.43
33.22,-3.16,-6.58,-3.07,-6.49,6.49,6.29,8.59,3.32,3.42,3.41
33.55,-3.21,-6.62,-3.07,-6.48,6.48,6.24,8.51,3.26,3.41,3.41
33.89,-3.24,-6.64,-3.06,-6.45,6.45,6.18,8.41,3.21,3.40,3.40
34.23,-3.24,-6.64,-3.03,-6.42,6.42,6.13,8.32,3.18,3.39,3.39
34.57,-3.13,-6.51,-3.00,-6.38,6.38,6.08,8.21,3.24,3.38,3.38
34.92,-3.01,-6.38,-2.95,-6.32,6.32,6.03,8.09,3.30,3.37,3.37
35.27,-2.89,-6.26,-2.89,-6.25,6.25,5.98,7.97,3.35,3.36,3.36
35.62,-2.76,-6.11,-2.82,-6.17,6.17,5.93,7.85,3.40,3.35,3.35
35.97,-2.65,-5.99,-2.74,-6.08,6.08,5.88,7.72,3.43,3.34,3.33
36.33,-2.56,-5.89,-2.66,-5.99,5.99,5.84,7.59,3.43,3.33,3.33
36.70,-2.48,-5.80,-2.59,-5.90,5.90,5.80,7.45,3.42,3.32,3.32
37.06,-2.43,-5.73,-2.52,-5.82,5.82,5.76,7.32,3.39,3.30,3.30
37.43,-2.37,-5.67,-2.46,-5.75,5.75,5.72,7.18,3.38,3.29,3.30
37.81,-2.37,-5.65,-2.41,-5.69,5.69,5.68,7.05,3.32,3.28,3.28
38.19,-2.37,-5.64,-2.37,-5.64,5.64,5.64,6.91,3.27,3.27,3.27
38.57,-2.37,-5.63,-2.35,-5.60,5.60,5.60,6.78,3.23,3.26,3.26
38.95,-2.37,-5.62,-2.33,-5.58,5.58,5.57,6.65,3.20,3.24,3.25
39.34,-2.37,-5.60,-2.32,-5.56,5.56,5.54,6.52,3.18,3.23,3.23
39.74,-2.37,-5.59,-2.32,-5.54,5.54,5.51,6.40,3.17,3.22,3.21
40.14,-2.32,-5.53,-2.31,-5.52,5.52,5.47,6.28,3.20,3.21,3.21
40.54,-2.32,-5.51,-2.30,-5.50,5.50,5.45,6.16,3.18,3.20,3.19
40.94,-2.28,-5.47,-2.29,-5.48,5.48,5.42,6.04,3.20,3.19,3.18
41.35,-2.28,-5.45,-2.28,-5.46,5.46,5.39,5.93,3.18,3.17,3.17
41.76,-2.26,-5.42,-2.27,-5.43,5.43,5.36,5.82,3.17,3.16,3.16
42.18,-2.23,-5.39,-2.26,-5.41,5.41,5.34,5.71,3.17,3.14,3.15
42.60,-2.23,-5.37,-2.25,-5.38,5.38,5.31,5.61,3.15,3.13,3.14
43.03,-2.23,-5.36,-2.23,-5.35,5.35,5.29,5.52,3.12,3.11,3.13
43.46,-2.23,-5.34,-2.22,-5.32,5.32,5.27,5.42,3.09,3.10,3.11
43.90,-2.18,-5.26,-2.20,-5.29,5.29,5.25,5.33,3.10,3.08,3.08
44.33,-2.18,-5.24,-2.19,-5.25,5.25,5.22,5.25,3.07,3.07,3.06
44.78,-2.18,-5.22,-2.17,-5.22,5.22,5.20,5.16,3.04,3.05,3.04
45.23,-2.18,-5.20,-2.15,-5.18,5.18,5.18,5.09,3.00,3.03,3.02
45.68,-2.14,-5.14,-2.13,-5.14,5.14,5.16,5.01,3.00,3.01,3.00
46.13,-2.14,-5.12,-2.11,-5.10,5.10,5.14,4.94,2.96,2.99,2.98
46.60,-2.09,-5.06,-2.09,-5.06,5.06,5.11,4.88,2.96,2.97,2.97
47.06,-2.05,-5.00,-2.06,-5.01,5.01,5.09,4.81,2.96,2.94,2.95
47.53,-2.02,-4.95,-2.03,-4.95,4.95,5.07,4.75,2.93,2.92,2.93
48.01,-1.97,-4.89,-2.00,-4.90,4.90,5.04,4.70,2.92,2.90,2.92
48.49,-1.95,-4.84,-1.96,-4.84,4.84,5.02,4.64,2.88,2.87,2.88
48.97,-1.93,-4.78,-1.93,-4.77,4.77,4.99,4.60,2.84,2.85,2.85
49.46,-1.90,-4.72,-1.88,-4.70,4.70,4.97,4.55,2.80,2.82,2.82
49.96,-1.87,-4.66,-1.84,-4.63,4.63,4.94,4.50,2.76,2.80,2.78
50.46,-1.81,-4.58,-1.79,-4.56,4.56,4.91,4.46,2.75,2.77,2.77
50.96,-1.78,-4.53,-1.75,-4.49,4.49,4.88,4.42,2.71,2.74,2.74
51.47,-1.71,-4.42,-1.70,-4.42,4.42,4.85,4.39,2.71,2.72,2.71
51.99,-1.65,-4.33,-1.66,-4.35,4.35,4.81,4.35,2.70,2.69,2.68
52.51,-1.60,-4.27,-1.63,-4.29,4.29,4.78,4.32,2.69,2.66,2.67
53.03,-1.56,-4.20,-1.59,-4.23,4.23,4.74,4.29,2.66,2.63,2.64
53.56,-1.53,-4.14,-1.56,-4.17,4.17,4.70,4.26,2.64,2.60,2.61
54.10,-1.50,-4.09,-1.54,-4.12,4.12,4.66,4.23,2.61,2.58,2.58
54.64,-1.48,-4.04,-1.51,-4.07,4.07,4.62,4.21,2.58,2.55,2.55
55.18,-1.48,-4.01,-1.49,-4.02,4.02,4.57,4.18,2.54,2.53,2.52
55.74,-1.48,-3.98,-1.48,-3.98,3.98,4.53,4.15,2.50,2.50,2.49
56.29,-1.48,-3.96,-1.47,-3.94,3.94,4.48,4.13,2.46,2.47,2.47
56.86,-1.48,-3.92,-1.46,-3.91,3.91,4.43,4.10,2.43,2.45,2.44
57.42,-1.48,-3.89,-1.46,-3.88,3.88,4.38,4.07,2.40,2.42,2.41
58.00,-1.48,-3.87,-1.46,-3.85,3.85,4.33,4.04,2.37,2.39,2.39
58.58,-1.48,-3.85,-1.46,-3.82,3.82,4.27,4.01,2.34,2.36,2.36
59.16,-1.45,-3.79,-1.46,-3.79,3.79,4.22,3.98,2.34,2.33,2.34
59.76,-1.44,-3.76,-1.47,-3.77,3.77,4.16,3.95,2.32,2.30,2.31
60.35,-1.44,-3.72,-1.47,-3.74,3.74,4.11,3.92,2.29,2.27,2.28
60.96,-1.46,-3.71,-1.47,-3.71,3.71,4.05,3.89,2.24,2.24,2.25
61.57,-1.47,-3.68,-1.47,-3.67,3.67,3.99,3.85,2.20,2.21,2.20
62.18,-1.48,-3.65,-1.47,-3.64,3.64,3.93,3.81,2.16,2.17,2.16
62.80,-1.48,-3.62,-1.47,-3.61,3.61,3.87,3.77,2.13,2.14,2.14
63.43,-1.48,-3.58,-1.47,-3.58,3.58,3.81,3.73,2.09,2.11,2.10
64.07,-1.48,-3.55,-1.47,-3.54,3.54,3.75,3.68,2.06,2.07,2.06
64.71,-1.48,-3.51,-1.48,-3.51,3.51,3.70,3.63,2.03,2.04,2.03
65.35,-1.48,-3.48,-1.48,-3.48,3.48,3.64,3.59,2.00,2.00,2.00
66.01,-1.48,-3.45,-1.49,-3.45,3.45,3.58,3.53,1.97,1.96,1.97
66.67,-1.48,-3.41,-1.49,-3.42,3.42,3.52,3.48,1.94,1.93,1.93
67.33,-1.48,-3.38,-1.50,-3.39,3.39,3.46,3.43,1.91,1.89,1.90
68.01,-1.48,-3.34,-1.50,-3.36,3.36,3.41,3.37,1.88,1.86,1.86
68.69,-1.50,-3.32,-1.51,-3.33,3.33,3.35,3.31,1.83,1.82,1.82
69.37,-1.53,-3.32,-1.51,-3.30,3.30,3.30,3.26,1.77,1.78,1.78
70.07,-1.53,-3.28,-1.52,-3.27,3.27,3.24,3.20,1.74,1.75,1.75
70.77,-1.53,-3.25,-1.53,-3.24,3.24,3.19,3.14,1.71,1.71,1.71
71.48,-1.53,-3.21,-1.54,-3.21,3.21,3.14,3.07,1.68,1.67,1.67
72.19,-1.55,-3.18,-1.55,-3.18,3.18,3.09,3.01,1.63,1.63,1.63
72.91,-1.58,-3.17,-1.56,-3.15,3.15,3.04,2.95,1.57,1.59,1.59
73.64,-1.58,-3.13,-1.58,-3.13,3.13,3.00,2.89,1.55,1.55,1.54
74.38,-1.58,-3.09,-1.59,-3.10,3.10,2.95,2.83,1.52,1.51,1.51
75.12,-1.59,-3.06,-1.61,-3.08,3.08,2.91,2.77,1.48,1.47,1.46
75.87,-1.62,-3.05,-1.62,-3.05,3.05,2.87,2.71,1.43,1.43,1.43
76.63,-1.62,-3.01,-1.63,-3.02,3.02,2.83,2.65,1.40,1.39,1.39
77.40,-1.64,-2.99,-1.65,-2.99,2.99,2.80,2.59,1.35,1.35,1.35
78.17,-1.67,-2.97,-1.66,-2.97,2.97,2.76,2.53,1.29,1.31,1.30
78.95,-1.67,-2.94,-1.68,-2.94,2.94,2.73,2.47,1.27,1.26,1.27
79.74,-1.70,-2.93,-1.69,-2.91,2.91,2.70,2.41,1.21,1.22,1.23
80.54,-1.72,-2.90,-1.70,-2.88,2.88,2.67,2.36,1.16,1.18,1.18
81.35,-1.72,-2.86,-1.71,-2.85,2.85,2.65,2.31,1.13,1.14,1.14
82.16,-1.72,-2.82,-1.73,-2.82,2.82,2.62,2.25,1.10,1.09,1.09
82.98,-1.72,-2.78,-1.74,-2.79,2.79,2.60,2.20,1.07,1.05,1.06
83.81,-1.76,-2.76,-1.76,-2.76,2.76,2.58,2.15,1.00,1.01,1.00
84.65,-1.76,-2.72,-1.77,-2.73,2.73,2.56,2.10,0.97,0.96,0.95
85.50,-1.76,-2.68,-1.78,-2.70,2.70,2.55,2.05,0.93,0.91,0.92
86.35,-1.79,-2.66,-1.79,-2.66,2.66,2.53,2.01,0.87,0.87,0.87
87.22,-1.81,-2.63,-1.80,-2.62,2.62,2.52,1.96,0.81,0.82,0.82
88.09,-1.81,-2.58,-1.81,-2.58,2.58,2.50,1.92,0.77,0.77,0.77
88.97,-1.81,-2.54,-1.82,-2.54,2.54,2.49,1.88,0.73,0.72,0.73
89.86,-1.84,-2.52,-1.83,-2.50,2.50,2.47,1.84,0.66,0.67,0.67
90.76,-1.86,-2.47,-1.84,-2.46,2.46,2.45,1.80,0.60,0.62,0.61
91.66,-1.86,-2.43,-1.85,-2.42,2.42,2.43,1.76,0.55,0.56,0.57
92.58,-1.86,-2.37,-1.86,-2.37,2.37,2.41,1.72,0.51,0.51,0.51
93.51,-1.86,-2.32,-1.86,-2.32,2.32,2.39,1.69,0.46,0.46,0.46
94.44,-1.86,-2.27,-1.87,-2.27,2.27,2.36,1.65,0.41,0.40,0.41
95.39,-1.86,-2.21,-1.88,-2.22,2.22,2.33,1.62,0.36,0.35,0.35
96.34,-1.86,-2.15,-1.88,-2.17,2.17,2.29,1.59,0.31,0.29,0.29
97.30,-1.90,-2.13,-1.89,-2.12,2.12,2.25,1.56,0.22,0.23,0.23
98.28,-1.90,-2.07,-1.90,-2.07,2.07,2.20,1.53,0.17,0.17,0.17
99.26,-1.90,-2.02,-1.90,-2.02,2.02,2.15,1.50,0.12,0.12,0.12
100.25,-1.90,-1.96,-1.91,-1.97,1.97,2.10,1.47,0.06,0.06,0.06
101.25,-1.90,-1.90,-1.91,-1.92,1.92,2.04,1.44,0.01,0.00,0.00
102.27,-1.92,-1.87,-1.92,-1.87,1.87,1.98,1.42,-0.05,-0.06,-0.06
103.29,-1.95,-1.83,-1.93,-1.82,1.82,1.92,1.39,-0.13,-0.11,-0.12
104.32,-1.95,-1.78,-1.94,-1.77,1.77,1.85,1.37,-0.18,-0.17,-0.17
105.37,-1.95,-1.72,-1.95,-1.72,1.72,1.78,1.34,-0.23,-0.23,-0.23
106.42,-1.95,-1.66,-1.96,-1.67,1.67,1.71,1.32,-0.29,-0.29,-0.29
107.48,-1.95,-1.61,-1.96,-1.61,1.61,1.64,1.29,-0.34,-0.35,-0.35
108.56,-1.95,-1.54,-1.97,-1.56,1.56,1.57,1.27,-0.39,-0.41,-0.41
109.64,-1.97,-1.50,-1.98,-1.51,1.51,1.50,1.25,-0.47,-0.47,-0.47
110.74,-2.00,-1.47,-1.99,-1.45,1.45,1.43,1.22,-0.55,-0.53,-0.53
111.85,-2.00,-1.42,-1.99,-1.40,1.40,1.36,1.20,-0.60,-0.60,-0.58
112.97,-2.00,-1.34,-2.00,-1.34,1.34,1.29,1.18,-0.66,-0.66,-0.66
114.10,-2.00,-1.28,-2.01,-1.29,1.29,1.22,1.16,-0.72,-0.72,-0.72
115.24,-2.00,-1.22,-2.01,-1.23,1.23,1.16,1.13,-0.77,-0.78,-0.78
116.39,-2.00,-1.15,-2.02,-1.17,1.17,1.09,1.11,-0.83,-0.85,-0.85
117.55,-2.04,-1.13,-2.02,-1.11,1.11,1.03,1.09,-0.93,-0.91,-0.92
118.73,-2.04,-1.06,-2.03,-1.06,1.06,0.96,1.06,-0.99,-0.97,-0.98
119.92,-2.04,-1.01,-2.03,-1.00,1.00,0.90,1.04,-1.05,-1.04,-1.04
121.12,-2.04,-0.94,-2.04,-0.94,0.94,0.84,1.01,-1.10,-1.10,-1.10
122.33,-2.04,-0.88,-2.04,-0.88,0.88,0.79,0.98,-1.16,-1.16,-1.16
123.55,-2.04,-0.83,-2.05,-0.82,0.82,0.73,0.96,-1.22,-1.22,-1.21
124.79,-2.04,-0.77,-2.05,-0.77,0.77,0.67,0.93,-1.27,-1.28,-1.28
126.03,-2.04,-0.70,-2.06,-0.71,0.71,0.62,0.90,-1.33,-1.34,-1.34
127.29,-2.04,-0.64,-2.06,-0.65,0.65,0.57,0.87,-1.39,-1.40,-1.40
128.57,-2.04,-0.57,-2.06,-0.60,0.60,0.51,0.84,-1.44,-1.46,-1.47
129.85,-2.08,-0.55,-2.07,-0.54,0.54,0.46,0.81,-1.54,-1.52,-1.53
131.15,-2.09,-0.51,-2.07,-0.49,0.49,0.41,0.78,-1.60,-1.58,-1.59
132.46,-2.09,-0.45,-2.08,-0.44,0.44,0.37,0.74,-1.65,-1.64,-1.64
133.79,-2.09,-0.40,-2.08,-0.39,0.39,0.32,0.71,-1.70,-1.70,-1.69
135.12,-2.09,-0.34,-2.09,-0.34,0.34,0.27,0.68,-1.75,-1.75,-1.76
136.48,-2.09,-0.29,-2.10,-0.30,0.30,0.23,0.64,-1.80,-1.80,-1.80
137.84,-2.09,-0.24,-2.11,-0.25,0.25,0.18,0.60,-1.84,-1.86,-1.86
139.22,-2.09,-0.17,-2.11,-0.21,0.21,0.14,0.57,-1.89,-1.91,-1.92
140.61,-2.11,-0.14,-2.12,-0.16,0.16,0.09,0.53,-1.95,-1.96,-1.97
142.02,-2.13,-0.13,-2.12,-0.12,0.12,0.05,0.49,-2.01,-2.01,-2.00
143.44,-2.14,-0.09,-2.13,-0.07,0.07,0.00,0.45,-2.07,-2.05,-2.05
144.87,-2.14,-0.04,-2.13,-0.03,0.03,-0.04,0.41,-2.11,-2.10,-2.10
146.32,-2.14,0.01,-2.13,0.01,-0.01,-0.08,0.37,-2.16,-2.15,-2.15
147.78,-2.14,0.04,-2.14,0.06,-0.06,-0.12,0.33,-2.20,-2.20,-2.19
149.26,-2.14,0.09,-2.14,0.10,-0.10,-0.16,0.29,-2.24,-2.24,-2.23
150.75,-2.14,0.15,-2.14,0.14,-0.14,-0.20,0.25,-2.29,-2.29,-2.29
152.26,-2.14,0.19,-2.14,0.19,-0.19,-0.25,0.20,-2.33,-2.34,-2.33
153.78,-2.14,0.23,-2.14,0.24,-0.24,-0.29,0.16,-2.38,-2.38,-2.38
155.32,-2.14,0.29,-2.14,0.28,-0.28,-0.33,0.12,-2.43,-2.43,-2.43
156.88,-2.14,0.33,-2.14,0.33,-0.33,-0.37,0.07,-2.48,-2.47,-2.47
158.44,-2.14,0.38,-2.14,0.38,-0.38,-0.41,0.03,-2.52,-2.52,-2.52
160.03,-2.14,0.43,-2.14,0.42,-0.42,-0.45,-0.01,-2.57,-2.57,-2.57
161.63,-2.14,0.48,-2.15,0.47,-0.47,-0.48,-0.06,-2.61,-2.61,-2.62
163.24,-2.14,0.52,-2.15,0.51,-0.51,-0.52,-0.10,-2.65,-2.66,-2.67
164.88,-2.14,0.56,-2.15,0.55,-0.55,-0.56,-0.15,-2.70,-2.70,-2.70
166.53,-2.14,0.61,-2.15,0.60,-0.60,-0.60,-0.20,-2.74,-2.75,-2.75
168.19,-2.14,0.65,-2.16,0.64,-0.64,-0.64,-0.24,-2.78,-2.79,-2.79
169.87,-2.16,0.68,-2.16,0.68,-0.68,-0.68,-0.29,-2.84,-2.84,-2.84
171.57,-2.16,0.72,-2.16,0.73,-0.73,-0.72,-0.34,-2.89,-2.88,-2.88
173.29,-2.18,0.74,-2.16,0.77,-0.77,-0.75,-0.39,-2.95,-2.93,-2.92
175.02,-2.18,0.78,-2.16,0.81,-0.81,-0.79,-0.43,-3.00,-2.97,-2.96
176.77,-2.18,0.83,-2.16,0.86,-0.86,-0.83,-0.48,-3.04,-3.02,-3.01
178.54,-2.15,0.91,-2.16,0.90,-0.90,-0.86,-0.53,-3.05,-3.06,-3.06
180.32,-2.14,0.96,-2.16,0.94,-0.94,-0.90,-0.58,-3.09,-3.10,-3.10
182.13,-2.14,1.00,-2.15,0.99,-0.99,-0.94,-0.63,-3.13,-3.14,-3.14
183.95,-2.14,1.04,-2.15,1.03,-1.03,-0.97,-0.68,-3.17,-3.18,-3.19
185.79,-2.14,1.08,-2.15,1.08,-1.08,-1.01,-0.74,-3.22,-3.23,-3.22
187.65,-2.14,1.13,-2.15,1.11,-1.11,-1.04,-0.79,-3.26,-3.26,-3.27
189.52,-2.14,1.16,-2.15,1.15,-1.15,-1.08,-0.84,-3.30,-3.30,-3.30
191.42,-2.14,1.19,-2.15,1.19,-1.19,-1.11,-0.89,-3.33,-3.34,-3.34
193.33,-2.14,1.23,-2.14,1.23,-1.23,-1.14,-0.94,-3.37,-3.37,-3.37
195.27,-2.14,1.26,-2.14,1.26,-1.26,-1.18,-1.00,-3.41,-3.41,-3.40
197.22,-2.14,1.29,-2.14,1.30,-1.30,-1.21,-1.05,-3.44,-3.44,-3.43
199.19,-2.14,1.33,-2.14,1.33,-1.33,-1.24,-1.10,-3.47,-3.46,-3.48
201.18,-2.14,1.35,-2.13,1.36,-1.36,-1.27,-1.15,-3.50,-3.49,-3.50
203.19,-2.14,1.37,-2.13,1.39,-1.39,-1.30,-1.21,-3.53,-3.52,-3.52
205.23,-2.14,1.40,-2.12,1.42,-1.42,-1.33,-1.26,-3.56,-3.54,-3.54
207.28,-2.14,1.41,-2.12,1.44,-1.44,-1.35,-1.31,-3.58,-3.56,-3.55
209.35,-2.09,1.49,-2.11,1.47,-1.47,-1.38,-1.36,-3.56,-3.58,-3.58
211.44,-2.09,1.52,-2.11,1.49,-1.49,-1.40,-1.41,-3.58,-3.60,-3.61
213.56,-2.09,1.52,-2.11,1.50,-1.50,-1.43,-1.46,-3.60,-3.61,-3.61
215.69,-2.09,1.53,-2.10,1.52,-1.52,-1.45,-1.51,-3.61,-3.63,-3.62
217.85,-2.09,1.54,-2.10,1.54,-1.54,-1.47,-1.56,-3.63,-3.64,-3.64
220.03,-2.09,1.56,-2.10,1.55,-1.55,-1.49,-1.60,-3.64,-3.65,-3.65
222.23,-2.09,1.57,-2.09,1.56,-1.56,-1.51,-1.65,-3.66,-3.65,-3.67
224.45,-2.09,1.57,-2.09,1.57,-1.57,-1.53,-1.69,-3.67,-3.66,-3.66
226.70,-2.09,1.57,-2.08,1.58,-1.58,-1.55,-1.73,-3.68,-3.66,-3.66
228.96,-2.09,1.57,-2.08,1.59,-1.59,-1.56,-1.77,-3.68,-3.67,-3.67
231.25,-2.09,1.57,-2.07,1.59,-1.59,-1.57,-1.80,-3.69,-3.67,-3.66
233.57,-2.09,1.57,-2.07,1.59,-1.59,-1.59,-1.83,-3.69,-3.67,-3.66
235.90,-2.05,1.61,-2.07,1.59,-1.59,-1.60,-1.86,-3.65,-3.66,-3.66
238.26,-2.04,1.62,-2.06,1.59,-1.59,-1.60,-1.89,-3.64,-3.66,-3.66
240.64,-2.04,1.61,-2.06,1.59,-1.59,-1.61,-1.91,-3.64,-3.65,-3.65
243.05,-2.04,1.60,-2.05,1.59,-1.59,-1.62,-1.93,-3.63,-3.65,-3.65
245.48,-2.04,1.59,-2.05,1.59,-1.59,-1.62,-1.94,-3.63,-3.64,-3.64
247.93,-2.04,1.58,-2.04,1.58,-1.58,-1.62,-1.96,-3.62,-3.63,-3.63
250.41,-2.04,1.58,-2.04,1.58,-1.58,-1.62,-1.96,-3.62,-3.61,-3.62
252.92,-2.04,1.56,-2.03,1.57,-1.57,-1.62,-1.97,-3.61,-3.60,-3.60
255.45,-2.04,1.54,-2.02,1.56,-1.56,-1.62,-1.97,-3.61,-3.59,-3.58
258.00,-2.04,1.53,-2.02,1.56,-1.56,-1.62,-1.97,-3.60,-3.57,-3.57
260.58,-2.00,1.56,-2.01,1.55,-1.55,-1.61,-1.96,-3.55,-3.56,-3.56
263.19,-2.00,1.54,-2.01,1.53,-1.53,-1.61,-1.95,-3.54,-3.54,-3.54
265.82,-2.00,1.52,-2.00,1.52,-1.52,-1.60,-1.94,-3.53,-3.52,-3.52
268.48,-2.00,1.50,-1.99,1.52,-1.52,-1.59,-1.92,-3.52,-3.50,-3.50
271.16,-1.96,1.52,-1.98,1.51,-1.51,-1.58,-1.90,-3.47,-3.49,-3.48
273.87,-1.95,1.51,-1.97,1.50,-1.50,-1.57,-1.88,-3.45,-3.47,-3.47
276.61,-1.95,1.49,-1.96,1.49,-1.49,-1.56,-1.86,-3.44,-3.45,-3.44
279.38,-1.95,1.48,-1.96,1.47,-1.47,-1.55,-1.83,-3.43,-3.43,-3.43
282.17,-1.95,1.46,-1.95,1.46,-1.46,-1.54,-1.81,-3.41,-3.41,-3.41
284.99,-1.95,1.44,-1.95,1.45,-1.45,-1.52,-1.78,-3.40,-3.39,-3.39
287.84,-1.94,1.43,-1.94,1.43,-1.43,-1.51,-1.75,-3.37,-3.37,-3.38
290.72,-1.93,1.42,-1.94,1.41,-1.41,-1.49,-1.71,-3.35,-3.35,-3.35
293.63,-1.93,1.40,-1.93,1.40,-1.40,-1.47,-1.68,-3.33,-3.33,-3.34
296.57,-1.93,1.38,-1.93,1.38,-1.38,-1.46,-1.65,-3.31,-3.31,-3.31
299.53,-1.93,1.36,-1.93,1.36,-1.36,-1.44,-1.61,-3.30,-3.29,-3.30
302.53,-1.93,1.35,-1.93,1.34,-1.34,-1.42,-1.57,-3.27,-3.27,-3.28
305.55,-1.93,1.31,-1.92,1.32,-1.32,-1.40,-1.54,-3.26,-3.25,-3.25
308.61,-1.93,1.30,-1.92,1.30,-1.30,-1.38,-1.50,-3.23,-3.23,-3.23
311.69,-1.90,1.30,-1.92,1.28,-1.28,-1.36,-1.47,-3.18,-3.20,-3.20
314.81,-1.90,1.27,-1.92,1.26,-1.26,-1.34,-1.43,-3.16,-3.18,-3.17
317.96,-1.90,1.25,-1.92,1.24,-1.24,-1.33,-1.39,-3.15,-3.16,-3.15
321.14,-1.90,1.23,-1.91,1.23,-1.23,-1.31,-1.36,-3.13,-3.14,-3.14
324.35,-1.90,1.22,-1.91,1.21,-1.21,-1.29,-1.32,-3.11,-3.12,-3.12
327.59,-1.90,1.19,-1.90,1.20,-1.20,-1.27,-1.29,-3.10,-3.10,-3.09
330.87,-1.90,1.17,-1.89,1.19,-1.19,-1.25,-1.26,-3.09,-3.08,-3.08
334.18,-1.90,1.16,-1.87,1.18,-1.18,-1.23,-1.22,-3.09,-3.05,-3.06
337.52,-1.86,1.18,-1.85,1.18,-1.18,-1.21,-1.19,-3.04,-3.04,-3.04
340.90,-1.86,1.15,-1.83,1.18,-1.18,-1.19,-1.16,-3.05,-3.02,-3.02
344.30,-1.81,1.19,-1.81,1.19,-1.19,-1.17,-1.13,-3.00,-3.00,-3.00
347.75,-1.79,1.19,-1.79,1.19,-1.19,-1.15,-1.10,-2.98,-2.98,-2.98
351.23,-1.76,1.20,-1.76,1.20,-1.20,-1.13,-1.07,-2.97,-2.96,-2.96
354.74,-1.73,1.21,-1.73,1.22,-1.22,-1.11,-1.04,-2.95,-2.95,-2.95
358.28,-1.69,1.24,-1.70,1.23,-1.23,-1.09,-1.01,-2.92,-2.93,-2.93
361.87,-1.66,1.25,-1.67,1.24,-1.24,-1.08,-0.98,-2.91,-2.91,-2.91
365.49,-1.62,1.27,-1.64,1.26,-1.26,-1.06,-0.96,-2.88,-2.90,-2.89
369.14,-1.60,1.28,-1.61,1.28,-1.28,-1.04,-0.93,-2.88,-2.88,-2.88
372.83,-1.58,1.28,-1.58,1.29,-1.29,-1.02,-0.91,-2.87,-2.87,-2.87
376.56,-1.54,1.32,-1.55,1.30,-1.30,-1.01,-0.88,-2.84,-2.85,-2.86
380.33,-1.53,1.30,-1.53,1.31,-1.31,-0.99,-0.86,-2.84,-2.84,-2.83
384.13,-1.50,1.32,-1.51,1.32,-1.32,-0.98,-0.84,-2.82,-2.83,-2.82
387.97,-1.48,1.33,-1.49,1.33,-1.33,-0.96,-0.82,-2.81,-2.81,-2.81
391.85,-1.48,1.32,-1.47,1.33,-1.33,-0.95,-0.80,-2.81,-2.80,-2.81
395.77,-1.48,1.31,-1.46,1.33,-1.33,-0.93,-0.78,-2.81,-2.79,-2.79
399.73,-1.47,1.31,-1.45,1.33,-1.33,-0.92,-0.76,-2.80,-2.78,-2.78
403.72,-1.44,1.33,-1.45,1.32,-1.32,-0.90,-0.74,-2.76,-2.77,-2.77
407.76,-1.44,1.32,-1.46,1.30,-1.30,-0.89,-0.73,-2.74,-2.76,-2.76
411.84,-1.48,1.26,-1.47,1.28,-1.28,-0.88,-0.71,-2.76,-2.75,-2.74
415.96,-1.48,1.25,-1.49,1.25,-1.25,-0.86,-0.70,-2.73,-2.74,-2.74
420.12,-1.48,1.24,-1.52,1.20,-1.20,-0.85,-0.68,-2.69,-2.73,-2.73
424.32,-1.52,1.20,-1.57,1.15,-1.15,-0.84,-0.67,-2.67,-2.72,-2.72
428.56,-1.58,1.13,-1.62,1.09,-1.09,-0.83,-0.65,-2.67,-2.71,-2.71
432.85,-1.65,1.05,-1.68,1.02,-1.02,-0.82,-0.64,-2.67,-2.70,-2.70
437.18,-1.71,0.98,-1.74,0.94,-0.94,-0.81,-0.63,-2.65,-2.69,-2.69
441.55,-1.79,0.88,-1.82,0.86,-0.86,-0.80,-0.62,-2.65,-2.67,-2.67
445.96,-1.87,0.79,-1.90,0.77,-0.77,-0.79,-0.61,-2.64,-2.66,-2.66
450.42,-1.98,0.67,-1.97,0.68,-0.68,-0.78,-0.60,-2.66,-2.65,-2.65
454.93,-2.04,0.59,-2.05,0.59,-0.59,-0.77,-0.60,-2.63,-2.64,-2.63
459.48,-2.15,0.47,-2.12,0.51,-0.51,-0.76,-0.59,-2.66,-2.62,-2.63
464.07,-2.22,0.38,-2.18,0.43,-0.43,-0.76,-0.58,-2.65,-2.61,-2.61
468.71,-2.28,0.31,-2.24,0.36,-0.36,-0.75,-0.58,-2.64,-2.59,-2.59
473.40,-2.32,0.26,-2.28,0.30,-0.30,-0.74,-0.57,-2.62,-2.58,-2.58
