frequency,raw,error,smoothed,error_smoothed,equalization,parametric_eq,fixed_band_eq,equalized_raw,equalized_smoothed,target
20.00,-7.47,-7.50,-7.41,-7.46,7.46,6.79,2.51,-0.01,0.05,0.02
20.20,-7.37,-7.45,-7.34,-7.43,7.43,6.77,2.59,0.06,0.09,0.07
20.40,-7.27,-7.40,-7.27,-7.40,7.40,6.75,2.66,0.13,0.13,0.12
20.61,-7.18,-7.34,-7.20,-7.36,7.36,6.73,2.74,0.18,0.16,0.15
20.81,-7.08,-7.29,-7.14,-7.33,7.33,6.71,2.82,0.25,0.19,0.20
21.02,-6.99,-7.24,-7.07,-7.29,7.29,6.69,2.90,0.30,0.22,0.24
21.23,-6.95,-7.22,-7.00,-7.25,7.25,6.66,2.99,0.30,0.24,0.26
21.44,-6.92,-7.21,-6.94,-7.21,7.21,6.64,3.08,0.28,0.27,0.28
21.66,-6.89,-7.20,-6.87,-7.16,7.16,6.62,3.17,0.27,0.29,0.30
21.87,-6.86,-7.18,-6.81,-7.11,7.11,6.59,3.26,0.25,0.31,0.31
22.09,-6.80,-7.14,-6.74,-7.07,7.07,6.57,3.35,0.27,0.32,0.33
22.31,-6.72,-7.06,-6.68,-7.02,7.02,6.55,3.45,0.30,0.34,0.34
22.54,-6.63,-6.98,-6.63,-6.97,6.97,6.52,3.55,0.33,0.34,0.34
22.76,-6.54,-6.89,-6.57,-6.91,6.91,6.49,3.66,0.37,0.34,0.34
22.99,-6.45,-6.79,-6.51,-6.85,6.85,6.47,3.76,0.40,0.35,0.33
23.22,-6.41,-6.75,-6.45,-6.79,6.79,6.44,3.87,0.38,0.35,0.33
23.45,-6.37,-6.71,-6.38,-6.73,6.73,6.42,3.98,0.36,0.35,0.33
23.69,-6.33,-6.68,-6.32,-6.66,6.66,6.39,4.09,0.33,0.35,0.34
23.92,-6.28,-6.63,-6.25,-6.60,6.60,6.36,4.21,0.32,0.35,0.34
24.16,-6.22,-6.57,-6.18,-6.53,6.53,6.33,4.33,0.31,0.35,0.34
24.40,-6.14,-6.49,-6.12,-6.47,6.47,6.30,4.45,0.33,0.35,0.35
24.65,-6.06,-6.41,-6.06,-6.41,6.41,6.27,4.57,0.35,0.35,0.34
24.89,-5.98,-6.33,-6.01,-6.35,6.35,6.24,4.69,0.37,0.35,0.34
25.14,-5.92,-6.27,-5.95,-6.30,6.30,6.21,4.82,0.38,0.35,0.34
25.39,-5.87,-6.23,-5.90,-6.25,6.25,6.18,4.94,0.37,0.35,0.35
25.65,-5.83,-6.19,-5.84,-6.19,6.19,6.15,5.07,0.36,0.35,0.35
25.91,-5.78,-6.13,-5.78,-6.13,6.13,6.12,5.19,0.35,0.35,0.34
26.16,-5.73,-6.08,-5.73,-6.07,6.07,6.09,5.32,0.34,0.35,0.34
26.43,-5.67,-6.02,-5.66,-6.01,6.01,6.06,5.45,0.34,0.35,0.34
26.69,-5.62,-5.97,-5.60,-5.95,5.95,6.02,5.57,0.33,0.34,0.34
26.96,-5.57,-5.92,-5.55,-5.89,5.89,5.99,5.69,0.32,0.34,0.34
27.23,-5.51,-5.86,-5.49,-5.83,5.83,5.95,5.81,0.32,0.34,0.34
27.50,-5.46,-5.81,-5.44,-5.78,5.78,5.92,5.93,0.32,0.34,0.34
27.77,-5.40,-5.74,-5.39,-5.73,5.73,5.88,6.04,0.33,0.34,0.33
28.05,-5.35,-5.69,-5.34,-5.68,5.68,5.85,6.15,0.33,0.34,0.33
28.33,-5.27,-5.60,-5.30,-5.63,5.63,5.81,6.25,0.36,0.33,0.32
28.62,-5.20,-5.53,-5.25,-5.58,5.58,5.78,6.35,0.38,0.33,0.32
28.90,-5.13,-5.47,-5.20,-5.54,5.54,5.74,6.44,0.40,0.33,0.33
29.19,-5.10,-5.43,-5.16,-5.49,5.49,5.70,6.52,0.39,0.33,0.32
29.48,-5.10,-5.44,-5.12,-5.44,5.44,5.66,6.59,0.34,0.33,0.33
29.78,-5.10,-5.43,-5.07,-5.40,5.40,5.62,6.65,0.30,0.33,0.32
30.08,-5.08,-5.42,-5.02,-5.35,5.35,5.58,6.70,0.27,0.33,0.33
30.38,-5.02,-5.35,-4.98,-5.30,5.30,5.55,6.74,0.28,0.32,0.32
30.68,-4.95,-5.28,-4.92,-5.24,5.24,5.50,6.77,0.29,0.32,0.32
30.99,-4.88,-5.21,-4.86,-5.18,5.18,5.46,6.79,0.30,0.32,0.32
31.30,-4.82,-5.14,-4.79,-5.11,5.11,5.42,6.80,0.29,0.32,0.31
31.61,-4.76,-5.08,-4.73,-5.05,5.05,5.38,6.79,0.29,0.32,0.31
31.93,-4.69,-5.01,-4.67,-4.98,4.98,5.34,6.77,0.29,0.31,0.31
32.24,-4.61,-4.92,-4.61,-4.92,4.92,5.29,6.74,0.31,0.31,0.30
32.57,-4.53,-4.84,-4.54,-4.85,4.85,5.25,6.70,0.32,0.30,0.30
32.89,-4.44,-4.75,-4.48,-4.78,4.78,5.21,6.65,0.34,0.30,0.30
33.22,-4.36,-4.66,-4.41,-4.71,4.71,5.16,6.59,0.35,0.30,0.29
33.55,-4.29,-4.59,-4.35,-4.64,4.64,5.12,6.52,0.35,0.29,0.29
33.89,-4.21,-4.50,-4.30,-4.59,4.59,5.07,6.44,0.37,0.29,0.28
34.23,-4.21,-4.50,-4.25,-4.53,4.53,5.03,6.35,0.32,0.28,0.28
34.57,-4.23,-4.51,-4.20,-4.48,4.48,4.98,6.26,0.25,0.28,0.27
34.92,-4.25,-4.53,-4.16,-4.43,4.43,4.93,6.16,0.18,0.27,0.27
35.27,-4.19,-4.46,-4.12,-4.39,4.39,4.88,6.06,0.19,0.27,0.26
35.62,-4.10,-4.37,-4.08,-4.35,4.35,4.83,5.95,0.24,0.27,0.26
35.97,-4.01,-4.28,-4.05,-4.31,4.31,4.79,5.83,0.30,0.26,0.26
36.33,-3.98,-4.25,-4.01,-4.27,4.27,4.74,5.72,0.29,0.26,0.26
36.70,-3.96,-4.22,-3.97,-4.23,4.23,4.69,5.60,0.27,0.26,0.25
37.06,-3.94,-4.20,-3.93,-4.20,4.20,4.64,5.48,0.25,0.26,0.25
37.43,-3.89,-4.16,-3.90,-4.16,4.16,4.58,5.36,0.27,0.26,0.26
37.81,-3.84,-4.11,-3.86,-4.12,4.12,4.53,5.24,0.28,0.26,0.26
38.19,-3.80,-4.06,-3.81,-4.07,4.07,4.48,5.12,0.27,0.26,0.25
38.57,-3.78,-4.05,-3.76,-4.02,4.02,4.43,5.00,0.24,0.26,0.26
38.95,-3.76,-4.04,-3.72,-3.98,3.98,4.37,4.88,0.22,0.26,0.27
39.34,-3.69,-3.96,-3.68,-3.95,3.95,4.32,4.76,0.26,0.26,0.26
39.74,-3.61,-3.88,-3.65,-3.91,3.91,4.27,4.64,0.30,0.26,0.26
40.14,-3.56,-3.83,-3.61,-3.87,3.87,4.21,4.53,0.31,0.26,0.26
40.54,-3.58,-3.85,-3.56,-3.82,3.82,4.16,4.41,0.24,0.26,0.26
40.94,-3.59,-3.85,-3.51,-3.77,3.77,4.10,4.30,0.18,0.26,0.25
41.35,-3.49,-3.75,-3.47,-3.72,3.72,4.04,4.20,0.23,0.25,0.25
41.76,-3.38,-3.63,-3.43,-3.68,3.68,3.99,4.09,0.30,0.25,0.24
42.18,-3.32,-3.57,-3.40,-3.64,3.64,3.93,3.99,0.31,0.24,0.24
42.60,-3.36,-3.60,-3.36,-3.59,3.59,3.87,3.89,0.23,0.23,0.23
43.03,-3.38,-3.61,-3.32,-3.53,3.53,3.81,3.79,0.15,0.22,0.22
43.46,-3.29,-3.51,-3.28,-3.48,3.48,3.75,3.70,0.19,0.20,0.21
43.90,-3.20,-3.40,-3.25,-3.44,3.44,3.70,3.60,0.24,0.19,0.19
44.33,-3.17,-3.35,-3.21,-3.39,3.39,3.64,3.52,0.22,0.18,0.17
44.78,-3.15,-3.31,-3.18,-3.35,3.35,3.58,3.43,0.20,0.17,0.15
45.23,-3.15,-3.30,-3.14,-3.29,3.29,3.51,3.35,0.14,0.15,0.14
45.68,-3.17,-3.31,-3.10,-3.24,3.24,3.45,3.26,0.07,0.14,0.13
46.13,-3.15,-3.26,-3.07,-3.19,3.19,3.39,3.19,0.04,0.13,0.11
46.60,-3.02,-3.14,-3.04,-3.15,3.15,3.33,3.11,0.13,0.11,0.11
47.06,-2.91,-3.01,-3.00,-3.10,3.10,3.27,3.04,0.19,0.10,0.09
47.53,-2.95,-3.04,-2.96,-3.05,3.05,3.20,2.97,0.09,0.08,0.08
48.01,-2.99,-3.08,-2.93,-2.99,2.99,3.14,2.90,0.00,0.07,0.08
48.49,-2.92,-2.99,-2.89,-2.95,2.95,3.08,2.83,0.03,0.05,0.06
48.97,-2.85,-2.90,-2.86,-2.90,2.90,3.01,2.77,0.05,0.04,0.04
49.46,-2.78,-2.81,-2.83,-2.86,2.86,2.95,2.71,0.07,0.03,0.02
49.96,-2.72,-2.73,-2.79,-2.81,2.81,2.88,2.65,0.08,0.01,0.00
50.46,-2.75,-2.75,-2.75,-2.75,2.75,2.82,2.59,0.00,0.00,-0.01
50.96,-2.79,-2.78,-2.71,-2.70,2.70,2.75,2.53,-0.09,-0.01,-0.02
51.47,-2.72,-2.69,-2.68,-2.66,2.66,2.68,2.48,-0.06,-0.03,-0.04
51.99,-2.65,-2.61,-2.66,-2.62,2.62,2.62,2.43,-0.03,-0.04,-0.05
52.51,-2.61,-2.56,-2.63,-2.58,2.58,2.55,2.38,-0.03,-0.05,-0.06
53.03,-2.57,-2.52,-2.60,-2.54,2.54,2.48,2.33,-0.04,-0.06,-0.06
53.56,-2.58,-2.51,-2.57,-2.49,2.49,2.41,2.28,-0.09,-0.08,-0.08
54.10,-2.57,-2.49,-2.54,-2.45,2.45,2.35,2.23,-0.12,-0.09,-0.09
54.64,-2.49,-2.39,-2.51,-2.41,2.41,2.28,2.18,-0.08,-0.10,-0.11
55.18,-2.44,-2.34,-2.48,-2.37,2.37,2.21,2.13,-0.07,-0.11,-0.11
55.74,-2.44,-2.32,-2.45,-2.33,2.33,2.14,2.09,-0.11,-0.12,-0.13
56.29,-2.44,-2.31,-2.42,-2.29,2.29,2.07,2.04,-0.15,-0.13,-0.14
56.86,-2.44,-2.30,-2.40,-2.25,2.25,2.00,1.99,-0.19,-0.15,-0.15
57.42,-2.40,-2.23,-2.37,-2.21,2.21,1.93,1.95,-0.19,-0.16,-0.18
58.00,-2.34,-2.16,-2.35,-2.17,2.17,1.86,1.90,-0.18,-0.18,-0.19
58.58,-2.28,-2.09,-2.32,-2.11,2.11,1.79,1.86,-0.17,-0.21,-0.20
59.16,-2.24,-2.03,-2.29,-2.06,2.06,1.72,1.81,-0.18,-0.23,-0.22
59.76,-2.24,-2.01,-2.26,-2.00,2.00,1.65,1.76,-0.24,-0.26,-0.24
60.35,-2.24,-1.97,-2.23,-1.95,1.95,1.58,1.71,-0.29,-0.29,-0.28
60.96,-2.24,-1.93,-2.21,-1.89,1.89,1.51,1.66,-0.35,-0.32,-0.32
61.57,-2.25,-1.90,-2.19,-1.83,1.83,1.43,1.61,-0.42,-0.36,-0.36
62.18,-2.22,-1.83,-2.16,-1.76,1.76,1.36,1.56,-0.46,-0.40,-0.40
62.80,-2.07,-1.63,-2.13,-1.69,1.69,1.29,1.51,-0.38,-0.44,-0.45
63.43,-2.03,-1.55,-2.10,-1.62,1.62,1.22,1.45,-0.41,-0.48,-0.49
64.07,-2.04,-1.51,-2.07,-1.55,1.55,1.15,1.40,-0.49,-0.52,-0.54
64.71,-2.04,-1.47,-2.05,-1.48,1.48,1.07,1.34,-0.56,-0.57,-0.58
65.35,-2.05,-1.44,-2.02,-1.41,1.41,1.00,1.28,-0.64,-0.62,-0.62
66.01,-2.06,-1.40,-2.00,-1.33,1.33,0.93,1.23,-0.73,-0.66,-0.67
66.67,-1.99,-1.28,-1.97,-1.26,1.26,0.86,1.17,-0.73,-0.71,-0.72
67.33,-1.93,-1.17,-1.94,-1.18,1.18,0.78,1.10,-0.75,-0.76,-0.77
68.01,-1.89,-1.09,-1.91,-1.11,1.11,0.71,1.04,-0.79,-0.81,-0.81
68.69,-1.84,-0.99,-1.88,-1.03,1.03,0.64,0.98,-0.81,-0.86,-0.86
69.37,-1.83,-0.93,-1.86,-0.95,0.95,0.56,0.91,-0.88,-0.91,-0.91
70.07,-1.84,-0.89,-1.85,-0.88,0.88,0.49,0.85,-0.96,-0.96,-0.96
70.77,-1.86,-0.86,-1.82,-0.81,0.81,0.42,0.78,-1.05,-1.02,-1.01
71.48,-1.82,-0.77,-1.79,-0.72,0.72,0.34,0.72,-1.10,-1.07,-1.06
72.19,-1.76,-0.64,-1.76,-0.64,0.64,0.27,0.65,-1.12,-1.13,-1.13
72.91,-1.74,-0.56,-1.73,-0.55,0.55,0.20,0.58,-1.19,-1.18,-1.19
73.64,-1.70,-0.47,-1.70,-0.47,0.47,0.12,0.51,-1.24,-1.24,-1.24
74.38,-1.66,-0.37,-1.68,-0.39,0.39,0.05,0.44,-1.27,-1.29,-1.30
75.12,-1.62,-0.27,-1.66,-0.31,0.31,-0.02,0.37,-1.32,-1.35,-1.36
75.87,-1.64,-0.23,-1.63,-0.22,0.22,-0.10,0.30,-1.42,-1.41,-1.42
76.63,-1.65,-0.19,-1.60,-0.14,0.14,-0.17,0.22,-1.51,-1.46,-1.47
77.40,-1.61,-0.10,-1.57,-0.05,0.05,-0.24,0.15,-1.56,-1.51,-1.52
78.17,-1.52,0.05,-1.53,0.03,-0.03,-0.31,0.08,-1.55,-1.57,-1.58
78.95,-1.45,0.16,-1.51,0.11,-0.11,-0.39,0.00,-1.56,-1.62,-1.62
79.74,-1.43,0.23,-1.48,0.19,-0.19,-0.46,-0.07,-1.62,-1.67,-1.67
80.54,-1.43,0.28,-1.45,0.27,-0.27,-0.53,-0.15,-1.70,-1.71,-1.72
81.35,-1.45,0.31,-1.42,0.35,-0.35,-0.60,-0.22,-1.80,-1.76,-1.77
82.16,-1.44,0.37,-1.39,0.42,-0.42,-0.68,-0.30,-1.86,-1.81,-1.82
82.98,-1.34,0.51,-1.36,0.50,-0.50,-0.75,-0.37,-1.84,-1.86,-1.86
83.81,-1.34,0.56,-1.33,0.58,-0.58,-0.82,-0.45,-1.92,-1.91,-1.91
84.65,-1.28,0.67,-1.29,0.66,-0.66,-0.89,-0.53,-1.94,-1.95,-1.96
85.50,-1.25,0.74,-1.26,0.75,-0.75,-0.96,-0.61,-2.00,-2.00,-2.00
86.35,-1.25,0.79,-1.23,0.82,-0.82,-1.04,-0.69,-2.07,-2.05,-2.05
87.22,-1.23,0.86,-1.21,0.89,-0.89,-1.11,-0.76,-2.12,-2.10,-2.10
88.09,-1.14,1.00,-1.18,0.97,-0.97,-1.18,-0.85,-2.11,-2.15,-2.15
88.97,-1.14,1.06,-1.15,1.05,-1.05,-1.25,-0.93,-2.19,-2.20,-2.21
89.86,-1.13,1.12,-1.13,1.13,-1.13,-1.32,-1.01,-2.26,-2.25,-2.26
90.76,-1.13,1.17,-1.10,1.20,-1.20,-1.39,-1.09,-2.33,-2.30,-2.31
91.66,-1.05,1.30,-1.08,1.28,-1.28,-1.46,-1.17,-2.33,-2.35,-2.36
92.58,-1.01,1.40,-1.06,1.35,-1.35,-1.53,-1.26,-2.36,-2.41,-2.42
93.51,-1.02,1.44,-1.04,1.42,-1.42,-1.60,-1.34,-2.44,-2.46,-2.47
94.44,-1.04,1.46,-1.02,1.49,-1.49,-1.67,-1.43,-2.53,-2.51,-2.51
95.39,-1.05,1.50,-1.00,1.56,-1.56,-1.73,-1.51,-2.61,-2.56,-2.56
96.34,-1.01,1.59,-0.98,1.63,-1.63,-1.80,-1.60,-2.64,-2.61,-2.61
97.30,-0.94,1.71,-0.96,1.69,-1.69,-1.87,-1.68,-2.64,-2.65,-2.66
98.28,-0.95,1.75,-0.94,1.76,-1.76,-1.94,-1.77,-2.71,-2.70,-2.71
99.26,-0.95,1.79,-0.93,1.82,-1.82,-2.00,-1.86,-2.77,-2.75,-2.75
100.25,-0.92,1.87,-0.92,1.88,-1.88,-2.07,-1.95,-2.80,-2.80,-2.80
101.25,-0.88,1.96,-0.91,1.93,-1.93,-2.14,-2.03,-2.82,-2.85,-2.85
102.27,-0.91,1.98,-0.91,1.98,-1.98,-2.20,-2.12,-2.90,-2.89,-2.90
103.29,-0.86,2.08,-0.91,2.04,-2.04,-2.27,-2.21,-2.90,-2.94,-2.95
104.32,-0.84,2.14,-0.90,2.09,-2.09,-2.33,-2.30,-2.93,-2.99,-2.99
105.37,-0.87,2.16,-0.90,2.15,-2.15,-2.40,-2.38,-3.02,-3.04,-3.04
106.42,-0.89,2.19,-0.90,2.20,-2.20,-2.46,-2.47,-3.09,-3.09,-3.09
107.48,-0.91,2.23,-0.90,2.25,-2.25,-2.53,-2.56,-3.16,-3.15,-3.15
108.56,-0.94,2.25,-0.90,2.29,-2.29,-2.59,-2.64,-3.23,-3.20,-3.20
109.64,-0.93,2.31,-0.90,2.35,-2.35,-2.65,-2.72,-3.28,-3.25,-3.25
110.74,-0.88,2.42,-0.89,2.41,-2.41,-2.71,-2.81,-3.29,-3.30,-3.31
111.85,-0.90,2.44,-0.88,2.47,-2.47,-2.78,-2.89,-3.37,-3.35,-3.35
112.97,-0.93,2.47,-0.86,2.54,-2.54,-2.84,-2.96,-3.47,-3.40,-3.41
114.10,-0.85,2.60,-0.85,2.61,-2.61,-2.90,-3.04,-3.46,-3.45,-3.46
115.24,-0.81,2.69,-0.83,2.67,-2.67,-2.96,-3.11,-3.48,-3.50,-3.51
116.39,-0.81,2.74,-0.80,2.74,-2.74,-3.02,-3.18,-3.55,-3.54,-3.56
117.55,-0.80,2.79,-0.77,2.82,-2.82,-3.08,-3.25,-3.62,-3.59,-3.60
118.73,-0.73,2.90,-0.73,2.89,-2.89,-3.14,-3.31,-3.63,-3.63,-3.64
119.92,-0.67,2.99,-0.69,2.97,-2.97,-3.19,-3.38,-3.65,-3.66,-3.67
121.12,-0.59,3.11,-0.65,3.05,-3.05,-3.25,-3.43,-3.64,-3.70,-3.71
122.33,-0.58,3.15,-0.61,3.13,-3.13,-3.31,-3.49,-3.71,-3.73,-3.74
123.55,-0.57,3.19,-0.56,3.20,-3.20,-3.36,-3.54,-3.77,-3.77,-3.77
124.79,-0.56,3.23,-0.52,3.28,-3.28,-3.42,-3.58,-3.84,-3.80,-3.80
126.03,-0.56,3.26,-0.48,3.34,-3.34,-3.48,-3.63,-3.91,-3.83,-3.83
127.29,-0.47,3.37,-0.45,3.41,-3.41,-3.53,-3.67,-3.88,-3.86,-3.85
128.57,-0.37,3.51,-0.42,3.46,-3.46,-3.58,-3.70,-3.84,-3.89,-3.89
129.85,-0.34,3.57,-0.40,3.52,-3.52,-3.64,-3.74,-3.86,-3.92,-3.92
131.15,-0.33,3.61,-0.38,3.57,-3.57,-3.69,-3.77,-3.90,-3.94,-3.95
132.46,-0.33,3.64,-0.36,3.61,-3.61,-3.74,-3.79,-3.95,-3.97,-3.98
133.79,-0.32,3.68,-0.34,3.66,-3.66,-3.79,-3.82,-3.98,-4.00,-4.01
135.12,-0.32,3.71,-0.33,3.70,-3.70,-3.85,-3.84,-4.02,-4.03,-4.04
136.48,-0.32,3.73,-0.31,3.74,-3.74,-3.90,-3.86,-4.06,-4.06,-4.06
137.84,-0.31,3.78,-0.30,3.79,-3.79,-3.95,-3.88,-4.10,-4.08,-4.10
139.22,-0.31,3.81,-0.28,3.83,-3.83,-3.99,-3.89,-4.14,-4.11,-4.13
140.61,-0.31,3.84,-0.28,3.86,-3.86,-4.04,-3.91,-4.18,-4.14,-4.16
142.02,-0.31,3.86,-0.27,3.90,-3.90,-4.09,-3.92,-4.21,-4.18,-4.18
143.44,-0.26,3.94,-0.26,3.95,-3.95,-4.14,-3.93,-4.21,-4.21,-4.21
144.87,-0.21,4.03,-0.24,4.01,-4.01,-4.19,-3.95,-4.22,-4.25,-4.25
146.32,-0.21,4.07,-0.21,4.08,-4.08,-4.23,-3.96,-4.29,-4.29,-4.29
147.78,-0.21,4.10,-0.18,4.16,-4.16,-4.28,-3.98,-4.37,-4.34,-4.32
149.26,-0.15,4.21,-0.15,4.25,-4.25,-4.32,-3.99,-4.40,-4.39,-4.37
150.75,-0.11,4.31,-0.12,4.34,-4.34,-4.36,-4.01,-4.45,-4.45,-4.43
152.26,-0.11,4.38,-0.08,4.43,-4.43,-4.41,-4.03,-4.54,-4.52,-4.50
153.78,-0.11,4.45,-0.05,4.53,-4.53,-4.45,-4.04,-4.64,-4.58,-4.57
155.32,-0.04,4.59,-0.01,4.63,-4.63,-4.49,-4.07,-4.68,-4.65,-4.64
156.88,0.08,4.79,0.02,4.74,-4.74,-4.53,-4.09,-4.66,-4.72,-4.72
158.44,0.09,4.88,0.04,4.83,-4.83,-4.57,-4.11,-4.74,-4.79,-4.80
160.03,0.09,4.96,0.05,4.91,-4.91,-4.61,-4.14,-4.82,-4.86,-4.88
161.63,0.09,5.03,0.06,4.99,-4.99,-4.65,-4.17,-4.90,-4.92,-4.95
163.24,0.09,5.09,0.07,5.06,-5.06,-4.69,-4.20,-4.97,-4.99,-5.01
164.88,0.09,5.14,0.07,5.11,-5.11,-4.73,-4.24,-5.02,-5.04,-5.06
166.53,0.08,5.18,0.07,5.15,-5.15,-4.77,-4.28,-5.08,-5.09,-5.11
168.19,0.08,5.22,0.06,5.18,-5.18,-4.80,-4.32,-5.11,-5.13,-5.15
169.87,0.07,5.25,0.04,5.20,-5.20,-4.84,-4.37,-5.13,-5.16,-5.19
171.57,0.05,5.25,0.01,5.20,-5.20,-4.88,-4.42,-5.15,-5.19,-5.21
173.29,-0.02,5.19,-0.01,5.20,-5.20,-4.91,-4.47,-5.22,-5.21,-5.22
175.02,-0.07,5.15,-0.02,5.20,-5.20,-4.94,-4.53,-5.27,-5.22,-5.23
176.77,-0.05,5.18,-0.03,5.20,-5.20,-4.98,-4.58,-5.25,-5.23,-5.24
178.54,-0.05,5.19,-0.03,5.20,-5.20,-5.01,-4.65,-5.26,-5.24,-5.25
180.32,-0.05,5.18,-0.03,5.21,-5.21,-5.04,-4.71,-5.27,-5.24,-5.24
182.13,-0.04,5.18,-0.02,5.23,-5.23,-5.07,-4.78,-5.27,-5.25,-5.23
183.95,-0.04,5.19,0.00,5.25,-5.25,-5.10,-4.86,-5.30,-5.25,-5.24
185.79,-0.04,5.19,0.03,5.29,-5.29,-5.13,-4.93,-5.33,-5.26,-5.24
187.65,0.01,5.26,0.06,5.33,-5.33,-5.16,-5.01,-5.32,-5.27,-5.26
189.52,0.13,5.39,0.11,5.39,-5.39,-5.19,-5.10,-5.26,-5.28,-5.27
191.42,0.22,5.50,0.16,5.45,-5.45,-5.22,-5.18,-5.23,-5.29,-5.29
193.33,0.24,5.54,0.21,5.51,-5.51,-5.24,-5.27,-5.28,-5.31,-5.31
195.27,0.25,5.57,0.26,5.58,-5.58,-5.27,-5.37,-5.33,-5.32,-5.33
197.22,0.33,5.67,0.31,5.65,-5.65,-5.30,-5.46,-5.32,-5.34,-5.35
199.19,0.38,5.74,0.36,5.72,-5.72,-5.32,-5.56,-5.34,-5.36,-5.37
201.18,0.42,5.80,0.42,5.80,-5.80,-5.35,-5.66,-5.38,-5.38,-5.39
203.19,0.47,5.87,0.47,5.87,-5.87,-5.37,-5.76,-5.41,-5.40,-5.41
205.23,0.55,5.97,0.52,5.95,-5.95,-5.39,-5.86,-5.40,-5.42,-5.43
207.28,0.59,6.02,0.56,6.01,-6.01,-5.41,-5.97,-5.42,-5.44,-5.44
209.35,0.59,6.04,0.60,6.06,-6.06,-5.44,-6.07,-5.47,-5.46,-5.46
211.44,0.59,6.07,0.62,6.10,-6.10,-5.46,-6.18,-5.52,-5.48,-5.49
213.56,0.59,6.08,0.65,6.15,-6.15,-5.48,-6.28,-5.56,-5.49,-5.50
215.69,0.75,6.25,0.68,6.19,-6.19,-5.50,-6.39,-5.44,-5.51,-5.51
217.85,0.78,6.29,0.71,6.23,-6.23,-5.52,-6.49,-5.45,-5.52,-5.52
220.03,0.78,6.30,0.73,6.26,-6.26,-5.53,-6.59,-5.48,-5.53,-5.53
222.23,0.77,6.32,0.76,6.29,-6.29,-5.55,-6.68,-5.52,-5.54,-5.56
224.45,0.77,6.31,0.78,6.32,-6.32,-5.57,-6.78,-5.55,-5.54,-5.55
226.70,0.77,6.31,0.80,6.34,-6.34,-5.58,-6.86,-5.57,-5.54,-5.55
228.96,0.77,6.30,0.83,6.36,-6.36,-5.60,-6.95,-5.59,-5.53,-5.54
231.25,0.81,6.33,0.86,6.39,-6.39,-5.61,-7.02,-5.58,-5.52,-5.53
233.57,0.87,6.38,0.90,6.41,-6.41,-5.63,-7.09,-5.54,-5.51,-5.52
235.90,0.91,6.41,0.94,6.44,-6.44,-5.64,-7.16,-5.53,-5.50,-5.51
238.26,0.97,6.46,0.98,6.46,-6.46,-5.65,-7.21,-5.49,-5.48,-5.50
240.64,1.03,6.49,1.01,6.47,-6.47,-5.67,-7.25,-5.44,-5.46,-5.47
243.05,1.05,6.48,1.05,6.49,-6.49,-5.68,-7.29,-5.44,-5.44,-5.44
245.48,1.07,6.48,1.08,6.50,-6.50,-5.69,-7.32,-5.43,-5.42,-5.42
247.93,1.10,6.48,1.12,6.51,-6.51,-5.70,-7.33,-5.41,-5.39,-5.39
250.41,1.19,6.55,1.15,6.52,-6.52,-5.71,-7.34,-5.33,-5.37,-5.37
252.92,1.24,6.57,1.17,6.52,-6.52,-5.72,-7.33,-5.28,-5.35,-5.34
255.45,1.25,6.56,1.19,6.52,-6.52,-5.72,-7.32,-5.27,-5.32,-5.32
258.00,1.26,6.55,1.21,6.51,-6.51,-5.73,-7.29,-5.25,-5.30,-5.30
260.58,1.21,6.48,1.21,6.48,-6.48,-5.74,-7.26,-5.27,-5.27,-5.28
263.19,1.17,6.41,1.20,6.45,-6.45,-5.75,-7.21,-5.28,-5.25,-5.25
265.82,1.16,6.38,1.19,6.42,-6.42,-5.75,-7.16,-5.26,-5.22,-5.23
268.48,1.16,6.36,1.18,6.38,-6.38,-5.76,-7.10,-5.22,-5.20,-5.21
271.16,1.16,6.33,1.16,6.33,-6.33,-5.76,-7.03,-5.17,-5.17,-5.18
273.87,1.15,6.30,1.13,6.28,-6.28,-5.76,-6.96,-5.13,-5.15,-5.16
276.61,1.15,6.27,1.11,6.23,-6.23,-5.77,-6.88,-5.08,-5.12,-5.13
279.38,1.13,6.22,1.08,6.18,-6.18,-5.77,-6.79,-5.05,-5.10,-5.10
282.17,1.07,6.14,1.06,6.13,-6.13,-5.77,-6.70,-5.06,-5.07,-5.08
284.99,1.01,6.04,1.05,6.09,-6.09,-5.77,-6.61,-5.08,-5.04,-5.04
287.84,0.97,5.98,1.03,6.04,-6.04,-5.77,-6.51,-5.07,-5.01,-5.02
290.72,0.98,5.96,1.02,6.00,-6.00,-5.77,-6.41,-5.02,-4.98,-4.99
293.63,0.99,5.94,1.01,5.97,-5.97,-5.77,-6.31,-4.98,-4.95,-4.96
296.57,1.00,5.92,1.01,5.93,-5.93,-5.77,-6.21,-4.93,-4.92,-4.93
299.53,1.01,5.90,1.00,5.90,-5.90,-5.76,-6.11,-4.89,-4.90,-4.90
302.53,1.03,5.90,1.01,5.88,-5.88,-5.76,-6.01,-4.85,-4.87,-4.88
305.55,1.04,5.87,1.02,5.87,-5.87,-5.76,-5.91,-4.83,-4.84,-4.84
308.61,1.05,5.86,1.04,5.86,-5.86,-5.75,-5.81,-4.81,-4.82,-4.82
311.69,1.05,5.83,1.06,5.86,-5.86,-5.75,-5.71,-4.81,-4.79,-4.79
314.81,1.06,5.82,1.09,5.86,-5.86,-5.74,-5.62,-4.80,-4.77,-4.77
317.96,1.06,5.80,1.11,5.86,-5.86,-5.74,-5.53,-4.81,-4.75,-4.75
321.14,1.13,5.86,1.13,5.87,-5.87,-5.73,-5.44,-4.74,-4.73,-4.74
324.35,1.16,5.87,1.15,5.87,-5.87,-5.72,-5.35,-4.71,-4.72,-4.72
327.59,1.16,5.86,1.16,5.86,-5.86,-5.71,-5.26,-4.71,-4.70,-4.71
330.87,1.23,5.92,1.17,5.86,-5.86,-5.70,-5.18,-4.63,-4.69,-4.70
334.18,1.25,5.92,1.18,5.85,-5.85,-5.69,-5.11,-4.61,-4.68,-4.68
337.52,1.25,5.91,1.18,5.85,-5.85,-5.68,-5.03,-4.60,-4.67,-4.67
340.90,1.18,5.83,1.19,5.84,-5.84,-5.67,-4.96,-4.67,-4.66,-4.66
344.30,1.15,5.79,1.18,5.84,-5.84,-5.66,-4.89,-4.69,-4.65,-4.65
347.75,1.15,5.79,1.18,5.82,-5.82,-5.65,-4.83,-4.67,-4.65,-4.65
351.23,1.15,5.78,1.16,5.80,-5.80,-5.64,-4.77,-4.65,-4.64,-4.64
354.74,1.15,5.79,1.14,5.78,-5.78,-5.62,-4.71,-4.63,-4.64,-4.65
358.28,1.11,5.74,1.12,5.75,-5.75,-5.61,-4.65,-4.65,-4.63,-4.64
361.87,1.07,5.70,1.09,5.73,-5.73,-5.59,-4.60,-4.66,-4.63,-4.64
365.49,1.07,5.69,1.06,5.70,-5.70,-5.58,-4.56,-4.63,-4.63,-4.63
369.14,1.08,5.71,1.03,5.67,-5.67,-5.56,-4.52,-4.59,-4.63,-4.64
372.83,1.04,5.67,1.00,5.64,-5.64,-5.54,-4.48,-4.60,-4.63,-4.64
376.56,1.00,5.64,0.98,5.61,-5.61,-5.52,-4.44,-4.62,-4.64,-4.65
380.33,0.93,5.56,0.95,5.59,-5.59,-5.50,-4.41,-4.66,-4.64,-4.64
384.13,0.91,5.54,0.93,5.57,-5.57,-5.48,-4.38,-4.66,-4.64,-4.64
387.97,0.91,5.55,0.90,5.55,-5.55,-5.46,-4.35,-4.64,-4.65,-4.65
391.85,0.89,5.54,0.87,5.52,-5.52,-5.44,-4.33,-4.64,-4.65,-4.66
395.77,0.82,5.46,0.85,5.51,-5.51,-5.42,-4.31,-4.69,-4.66,-4.65
399.73,0.80,5.45,0.84,5.50,-5.50,-5.40,-4.29,-4.70,-4.66,-4.66
403.72,0.81,5.46,0.82,5.49,-5.49,-5.37,-4.27,-4.68,-4.67,-4.66
407.76,0.81,5.48,0.81,5.48,-5.48,-5.35,-4.26,-4.67,-4.67,-4.68
411.84,0.81,5.48,0.80,5.48,-5.48,-5.32,-4.25,-4.67,-4.68,-4.68
415.96,0.80,5.47,0.80,5.48,-5.48,-5.29,-4.24,-4.68,-4.68,-4.68
420.12,0.80,5.47,0.81,5.48,-5.48,-5.27,-4.23,-4.68,-4.67,-4.68
424.32,0.81,5.48,0.81,5.48,-5.48,-5.24,-4.23,-4.67,-4.67,-4.68
428.56,0.82,5.48,0.83,5.48,-5.48,-5.21,-4.22,-4.67,-4.66,-4.67
432.85,0.83,5.48,0.84,5.49,-5.49,-5.18,-4.22,-4.66,-4.64,-4.66
437.18,0.88,5.52,0.86,5.49,-5.49,-5.15,-4.22,-4.61,-4.62,-4.65
441.55,0.90,5.50,0.89,5.49,-5.49,-5.11,-4.21,-4.59,-4.60,-4.61
445.96,0.86,5.43,0.91,5.48,-5.48,-5.08,-4.21,-4.62,-4.56,-4.58
450.42,0.90,5.44,0.93,5.46,-5.46,-5.04,-4.21,-4.56,-4.53,-4.55
454.93,0.95,5.44,0.95,5.44,-5.44,-5.00,-4.21,-4.49,-4.49,-4.50
459.48,0.94,5.39,0.96,5.41,-5.41,-4.97,-4.21,-4.47,-4.44,-4.46
464.07,0.97,5.37,0.97,5.37,-5.37,-4.93,-4.20,-4.40,-4.40,-4.41
